ACC_0,ACC_1,ACC_2,BVP,EDA,TEMP,labels
57.0,6.0,27.0,11.77,0.262513,33.41,0.0
63.0,0.0,-3.0,-8.78,0.218093,34.34,0.0
54.0,25.0,20.0,7.22,0.448733,35.79,0.0
38.0,29.0,42.0,-39.62,0.35076,33.41,0.0
-33.0,-7.0,-55.0,25.47,0.11923,33.07,0.0
-65.0,0.0,6.0,21.57,0.187026,31.47,0.0
-60.0,14.0,21.0,11.71,2.493374,34.34,0.0
-48.0,-18.0,39.0,-67.22,2.706035,34.37,0.0
57.0,-23.0,-13.0,55.13,7.782228,34.66,0.0
38.0,-43.0,24.0,-78.41,3.310325,33.89,0.0
60.0,-15.0,7.0,-67.45,7.255526,34.68,0.0
48.0,-33.0,22.0,7.95,4.723836,33.5,0.0
28.0,24.0,50.0,124.14,0.213889,34.5,0.0
-18.0,-8.0,-62.0,-47.17,0.11923,33.07,0.0
57.0,29.0,-11.0,-9.34,0.281685,33.31,0.0
62.0,-1.0,-12.0,-15.14,0.447978,34.29,0.0
-35.0,-27.0,45.0,-50.92,2.73162,34.37,0.0
36.0,9.0,51.0,-44.13,0.253558,33.5,0.0
-34.0,0.0,54.0,-8.98,2.55222,31.77,0.0
26.0,25.0,51.0,43.58,0.245883,33.27,0.0
-63.0,2.0,17.0,12.48,0.184468,31.43,0.0
60.0,-12.0,13.0,10.49,4.352115,34.09,0.0
28.0,14.0,55.0,-38.04,1.225564,33.87,0.0
-16.0,61.0,8.0,-69.3,2.181106,32.29,0.0
41.0,25.0,41.0,10.47,0.354598,33.43,0.0
62.0,0.0,12.0,8.49,0.160433,34.61,0.0
60.0,-4.0,18.0,-3.66,1.109279,34.68,0.0
56.0,-11.0,26.0,-3.91,4.6829,34.25,0.0
59.0,-5.0,21.0,11.73,0.992895,35.25,0.0
10.0,11.0,61.0,-22.08,0.248426,34.13,0.0
61.0,-2.0,-13.0,16.56,0.455653,34.5,0.0
35.0,23.0,47.0,-39.13,0.280406,33.31,0.0
20.0,-9.0,59.0,6.23,3.622014,32.59,0.0
26.0,26.0,51.0,-50.9,0.248441,33.25,0.0
45.0,-14.0,43.0,-113.59,2.154243,33.89,0.0
56.0,19.0,23.0,14.83,0.187341,35.83,0.0
62.0,0.0,12.0,-31.41,0.164277,34.57,0.0
25.0,57.0,14.0,-52.22,0.237313,34.03,0.0
-65.0,0.0,6.0,-14.51,0.187026,31.49,0.0
18.0,61.0,6.0,13.34,0.250985,33.68,0.0
55.0,25.0,20.0,-22.78,0.517925,35.81,0.0
-62.0,1.0,18.0,22.34,0.189584,31.45,0.0
46.0,-27.0,8.0,114.97,6.905558,33.0,0.0
-54.0,-22.0,28.0,30.14,2.359053,34.43,0.0
13.0,-8.0,61.0,3.47,4.75979,32.71,0.0
36.0,9.0,50.0,20.97,0.252279,33.49,0.0
53.0,10.0,32.0,16.48,0.387856,31.05,0.0
59.0,-23.0,-2.0,-18.32,4.90549,33.75,0.0
60.0,-12.0,13.0,14.21,4.364907,34.21,0.0
-17.0,-8.0,-62.0,-43.52,0.11923,33.05,0.0
42.0,31.0,-9.0,-24.27,6.625401,32.95,0.0
62.0,-2.0,-14.0,16.11,0.455653,34.53,0.0
-33.0,54.0,6.0,8.44,2.567781,32.5,0.0
46.0,-39.0,-17.0,19.97,0.234369,33.57,0.0
-28.0,57.0,10.0,1.56,1.752108,31.93,0.0
-63.0,18.0,-4.0,1.31,2.306603,31.45,0.0
55.0,6.0,31.0,32.91,0.259954,33.45,0.0
-29.0,57.0,5.0,-11.72,5.037944,32.29,0.0
28.0,57.0,5.0,-29.14,0.230906,34.09,0.0
19.0,11.0,60.0,-12.72,1.222825,35.77,0.0
59.0,-23.0,-5.0,-12.8,2.904144,33.77,0.0
57.0,3.0,25.0,1.16,0.337908,34.03,0.0
-32.0,-7.0,-56.0,-31.73,0.11923,33.09,0.0
49.0,29.0,30.0,-32.56,0.121993,35.91,0.0
-35.0,-20.0,49.0,-6.66,2.739295,34.37,0.0
62.0,-2.0,-13.0,17.24,0.441582,34.25,0.0
31.0,27.0,48.0,16.69,0.30471,33.33,0.0
27.0,25.0,51.0,50.37,0.259954,33.29,0.0
-33.0,-6.0,-55.0,25.25,0.112834,33.13,0.0
20.0,7.0,59.0,-3.44,0.477399,31.59,0.0
54.0,-29.0,-7.0,-5.34,7.052671,32.65,0.0
29.0,57.0,3.0,-32.78,0.220656,34.07,0.0
20.0,8.0,59.0,-18.95,0.384019,31.65,0.0
36.0,-41.0,-30.0,-11.08,3.45703,33.75,0.0
57.0,23.0,17.0,-34.62,0.195029,33.66,0.0
-64.0,13.0,-5.0,11.25,0.457675,30.57,0.0
-31.0,-8.0,-55.0,7.01,0.111555,33.11,0.0
-21.0,-11.0,-60.0,-7.86,0.125626,32.99,0.0
-47.0,-17.0,40.0,-63.62,2.686846,34.37,0.0
60.0,-4.0,18.0,8.47,1.317746,33.79,0.0
12.0,-52.0,33.0,19.33,2.531752,31.73,0.0
54.0,-3.0,16.0,-47.34,0.165559,35.91,0.0
56.0,-28.0,-4.0,-9.84,7.128147,32.61,0.0
14.0,13.0,62.0,-2.49,1.279203,35.83,0.0
62.0,0.0,-10.0,17.78,0.202717,34.18,0.0
60.0,-4.0,18.0,11.62,1.42262,33.73,0.0
-63.0,1.0,17.0,-34.61,0.197259,31.39,0.0
-21.0,-11.0,-60.0,-72.34,0.126905,32.97,0.0
-50.0,70.0,5.0,-3.82,4.27873,32.27,0.0
52.0,-19.0,30.0,12.83,5.86398,33.0,0.0
36.0,25.0,46.0,-40.81,0.340527,33.39,0.0
56.0,-29.0,-4.0,33.04,6.888927,32.84,0.0
56.0,-11.0,26.0,-18.28,4.680342,34.29,0.0
57.0,-27.0,-10.0,-67.72,6.109155,33.16,0.0
5.0,2.0,54.0,-40.53,0.548746,35.79,0.0
-33.0,-8.0,-55.0,7.79,0.13458,32.91,0.0
57.0,6.0,27.0,18.96,0.261234,33.43,0.0
46.0,-39.0,-17.0,18.03,0.235649,33.55,0.0
20.0,8.0,59.0,-4.89,0.399369,31.61,0.0
53.0,-17.0,30.0,8.09,5.278399,33.13,0.0
28.0,26.0,51.0,35.11,0.262513,33.29,0.0
6.0,-53.0,32.0,25.55,2.497212,31.73,0.0
40.0,-38.0,-31.0,24.35,3.810019,33.87,0.0
20.0,8.0,59.0,8.4,0.464607,31.59,0.0
-39.0,43.0,3.0,-36.6,4.23773,32.34,0.0
60.0,-17.0,4.0,20.56,7.493466,34.68,0.0
-62.0,21.0,6.0,-0.41,2.55222,31.85,0.0
60.0,-13.0,14.0,35.74,4.744304,33.87,0.0
-54.0,-22.0,28.0,-0.22,2.361611,34.43,0.0
-20.0,-6.0,-61.0,45.91,0.120509,33.07,0.0
34.0,10.0,52.0,-12.25,0.248441,33.57,0.0
28.0,26.0,50.0,10.64,0.271451,33.49,0.0
62.0,-2.0,-12.0,9.43,0.450536,34.29,0.0
35.0,23.0,47.0,9.98,0.277847,33.39,0.0
-20.0,-4.0,-61.0,23.0,0.120509,33.07,0.0
62.0,-2.0,-14.0,25.71,0.44414,34.31,0.0
-12.0,63.0,12.0,96.94,2.048592,32.27,0.0
40.0,13.0,-47.0,4.55,0.111743,35.93,0.0
11.0,-59.0,19.0,15.45,0.188305,31.43,0.0
-32.0,-7.0,-56.0,-34.06,0.11923,33.05,0.0
-28.0,57.0,13.0,2.85,3.172094,32.45,0.0
61.0,0.0,-17.0,99.79,0.191185,34.21,0.0
-58.0,-6.0,-29.0,-23.18,0.108996,33.07,0.0
-19.0,-6.0,-61.0,15.47,0.123067,33.05,0.0
56.0,-28.0,-7.0,63.89,7.069302,32.57,0.0
-29.0,-9.0,-57.0,6.57,0.123067,33.09,0.0
27.0,25.0,51.0,56.14,0.251,33.25,0.0
-62.0,20.0,-2.0,2.62,2.350098,31.51,0.0
61.0,-2.0,-13.0,-33.74,0.451815,34.45,0.0
-22.0,-4.0,-61.0,38.39,0.123067,33.07,0.0
-34.0,-8.0,-56.0,-47.65,0.125626,33.11,0.0
53.0,26.0,21.0,-9.48,0.097648,35.91,0.0
28.0,14.0,54.0,16.66,0.24972,33.53,0.0
57.0,-11.0,26.0,-22.5,4.704648,34.23,0.0
21.0,7.0,59.0,-23.7,0.417277,31.59,0.0
57.0,-26.0,9.0,26.32,7.806533,34.66,0.0
29.0,24.0,51.0,52.33,0.265071,33.29,0.0
-36.0,-21.0,48.0,-169.11,2.958047,34.31,0.0
-50.0,-21.0,36.0,-90.04,2.909436,34.31,0.0
57.0,-26.0,-1.0,36.15,6.878693,32.99,0.0
22.0,10.0,58.0,-9.74,0.25866,34.09,0.0
54.0,10.0,31.0,-6.38,0.391694,31.21,0.0
0.0,-3.0,46.0,3.83,8.210776,34.79,0.0
39.0,50.0,-8.0,12.74,0.262497,33.57,0.0
-33.0,61.0,8.0,-6.03,3.843391,32.41,0.0
30.0,17.0,53.0,-9.31,0.22796,34.23,0.0
20.0,8.0,59.0,9.27,0.403206,31.63,0.0
-32.0,53.0,8.0,4.45,4.424223,32.27,0.0
57.0,23.0,17.0,18.78,0.209124,33.65,0.0
60.0,-4.0,18.0,-15.86,1.565861,33.99,0.0
-30.0,56.0,9.0,43.04,4.77913,32.29,0.0
62.0,-2.0,-13.0,10.26,0.451815,34.43,0.0
58.0,25.0,6.0,61.79,0.118149,35.89,0.0
-36.0,56.0,6.0,13.92,5.178551,32.31,0.0
-62.0,18.0,-11.0,-0.76,2.373124,31.57,0.0
29.0,27.0,49.0,6.29,0.276568,33.49,0.0
51.0,-14.0,35.0,46.72,6.202982,33.11,0.0
20.0,7.0,59.0,10.1,0.495307,31.59,0.0
60.0,-12.0,13.0,19.59,4.335485,33.87,0.0
-48.0,-18.0,38.0,-58.2,2.726503,34.34,0.0
-64.0,13.0,-5.0,3.44,0.449987,30.65,0.0
52.0,6.0,36.0,11.85,0.234313,33.97,0.0
-60.0,-20.0,16.0,33.17,2.828843,34.31,0.0
62.0,8.0,-8.0,26.72,1.082322,33.77,0.0
-30.0,56.0,10.0,-0.35,2.256437,31.99,0.0
55.0,-27.0,-5.0,37.71,6.581198,33.09,0.0
52.0,10.0,34.0,6.58,0.389135,31.01,0.0
-62.0,1.0,18.0,11.5,0.190863,31.39,0.0
55.0,-14.0,27.0,-12.11,5.851188,33.07,0.0
59.0,-21.0,-2.0,-7.87,2.989849,33.81,0.0
49.0,13.0,-37.0,-36.63,0.835486,34.15,0.0
-61.0,20.0,-12.0,-6.17,2.36289,31.57,0.0
-52.0,-19.0,32.0,28.29,2.452438,34.41,0.0
52.0,-31.0,14.0,40.45,8.872946,34.79,0.0
52.0,15.0,-33.0,120.2,0.834207,34.16,0.0
-33.0,-8.0,-55.0,-22.7,0.137138,32.93,0.0
53.0,-17.0,30.0,6.63,5.228509,33.16,0.0
-33.0,76.0,23.0,5.9,2.928216,32.47,0.0
47.0,-34.0,23.0,-25.08,4.736629,33.45,0.0
46.0,21.0,41.0,40.8,0.288029,34.0,0.0
27.0,25.0,51.0,18.79,0.257396,33.29,0.0
57.0,-22.0,-18.0,-25.94,2.045513,33.93,0.0
60.0,-4.0,18.0,-12.55,1.161715,34.33,0.0
57.0,5.0,27.0,15.77,0.262513,33.43,0.0
-64.0,0.0,10.0,-46.53,0.187026,31.47,0.0
-34.0,-6.0,-55.0,-4.33,0.114113,33.11,0.0
-62.0,18.0,-10.0,-4.25,2.371845,31.59,0.0
57.0,23.0,17.0,31.26,0.183497,33.79,0.0
58.0,-12.0,23.0,26.4,4.712323,34.21,0.0
57.0,22.0,17.0,8.62,0.25397,33.63,0.0
-31.0,57.0,10.0,5.09,1.621421,31.93,0.0
-28.0,-42.0,-38.0,-51.54,0.121788,33.03,0.0
59.0,-23.0,-4.0,-1.53,3.056366,33.81,0.0
62.0,12.0,-1.0,-40.85,8.045753,34.79,0.0
48.0,-3.0,41.0,-16.73,0.207455,34.15,0.0
50.0,-11.0,-40.0,-37.54,0.366728,35.89,0.0
-17.0,-8.0,-61.0,-16.99,0.121788,33.07,0.0
13.0,-9.0,61.0,-15.29,4.946516,32.73,0.0
20.0,12.0,45.0,-8.57,8.751416,34.79,0.0
52.0,5.0,35.0,15.7,0.234313,33.95,0.0
24.0,-50.0,30.0,28.25,2.535589,31.75,0.0
60.0,-12.0,13.0,2.26,4.354673,34.43,0.0
-36.0,-24.0,-38.0,-36.52,3.098765,33.79,0.0
54.0,-1.0,33.0,-4.94,0.303376,34.03,0.0
58.0,0.0,-21.0,-62.59,0.2245,34.29,0.0
54.0,23.0,22.0,13.47,0.150183,35.89,0.0
28.0,24.0,51.0,-80.29,0.268909,33.29,0.0
28.0,25.0,51.0,55.22,0.253558,33.27,0.0
64.0,15.0,5.0,-30.0,0.250126,35.75,0.0
20.0,8.0,59.0,29.18,0.390415,31.63,0.0
-62.0,18.0,-10.0,2.43,2.440925,31.65,0.0
65.0,10.0,3.0,35.16,7.992025,34.81,0.0
54.0,0.0,32.0,3.56,0.328955,34.05,0.0
20.0,7.0,59.0,-28.65,0.423673,31.59,0.0
-20.0,-4.0,-61.0,37.77,0.121788,33.07,0.0
42.0,11.0,46.0,28.44,0.524728,31.59,0.0
59.0,-22.0,-3.0,24.52,3.083229,33.81,0.0
-52.0,-20.0,31.0,-70.3,2.467789,34.41,0.0
29.0,26.0,50.0,23.62,0.297035,33.31,0.0
59.0,-22.0,-3.0,17.02,3.10716,33.71,0.0
56.0,-29.0,-6.0,52.73,7.039879,32.63,0.0
-57.0,-24.0,20.0,-91.08,2.877455,34.33,0.0
17.0,61.0,6.0,9.33,0.217726,34.34,0.0
27.0,25.0,51.0,-43.68,0.251,33.25,0.0
61.0,-26.0,-12.0,-40.37,6.62796,33.0,0.0
40.0,21.0,44.0,-71.38,0.234355,34.27,0.0
40.0,22.0,44.0,6.1,0.217726,34.41,0.0
60.0,-15.0,9.0,-3.09,4.509462,30.17,0.0
-30.0,56.0,12.0,-27.18,4.113736,32.37,0.0
-54.0,-22.0,28.0,-6.9,2.373124,34.41,0.0
62.0,-14.0,-6.0,-73.72,4.882463,33.99,0.0
-54.0,-22.0,28.0,-50.52,2.357773,34.43,0.0
58.0,-20.0,-6.0,-151.25,2.855536,33.81,0.0
57.0,23.0,17.0,3.83,0.20528,33.66,0.0
29.0,24.0,51.0,-31.22,0.271468,33.31,0.0
62.0,0.0,-14.0,-62.87,0.177091,34.39,0.0
51.0,6.0,36.0,-6.53,0.222803,33.93,0.0
59.0,-22.0,-4.0,20.5,3.103695,33.81,0.0
-63.0,2.0,16.0,-40.09,0.179351,31.45,0.0
59.0,-20.0,-3.0,-3.21,4.773727,33.77,0.0
48.0,-33.0,23.0,-1.65,4.684179,33.53,0.0
20.0,7.0,59.0,-27.15,0.49019,31.59,0.0
13.0,-9.0,61.0,-1.57,4.570506,32.71,0.0
42.0,19.0,43.0,11.44,0.256055,34.0,0.0
58.0,25.0,5.0,35.02,0.118149,35.89,0.0
62.0,-2.0,-12.0,-17.41,0.451815,34.29,0.0
55.0,-1.0,31.0,21.41,0.208734,34.15,0.0
20.0,8.0,59.0,-9.8,0.417277,31.61,0.0
-33.0,56.0,10.0,-3.21,2.088592,31.99,0.0
38.0,-43.0,25.0,88.09,2.673106,34.16,0.0
56.0,-13.0,26.0,4.52,4.73407,34.37,0.0
-46.0,-12.0,43.0,14.38,2.758484,34.33,0.0
30.0,11.0,54.0,34.63,0.889201,34.18,0.0
-33.0,-6.0,-54.0,-54.18,0.115392,33.11,0.0
35.0,11.0,52.0,5.53,0.239486,33.5,0.0
11.0,21.0,59.0,37.06,1.292168,34.29,0.0
-63.0,19.0,-6.0,-7.63,2.333468,31.51,0.0
14.0,-9.0,60.0,-13.66,4.202711,32.65,0.0
-31.0,55.0,10.0,3.35,3.248969,32.15,0.0
39.0,50.0,-7.0,1.92,0.265056,33.57,0.0
39.0,19.0,46.0,27.35,0.235592,34.0,0.0
57.0,23.0,17.0,27.2,0.200155,33.65,0.0
59.0,-1.0,5.0,-135.23,1.539203,34.0,0.0
53.0,-12.0,-31.0,-29.31,0.418557,34.11,0.0
62.0,0.0,12.0,0.55,0.154027,34.63,0.0
57.0,22.0,17.0,61.75,0.355196,33.71,0.0
-34.0,-6.0,-55.0,28.51,0.115392,33.11,0.0
50.0,31.0,24.0,-15.82,0.38851,35.87,0.0
-63.0,2.0,17.0,-1.02,0.18063,31.41,0.0
59.0,-22.0,-1.0,6.79,4.974569,33.99,0.0
64.0,1.0,-7.0,4.78,0.21553,34.37,0.0
60.0,-4.0,18.0,8.38,1.029984,35.03,0.0
57.0,23.0,18.0,-6.44,0.297536,33.68,0.0
30.0,25.0,49.0,-31.66,0.318781,33.33,0.0
64.0,3.0,-4.0,-182.71,4.798033,34.53,0.0
-18.0,-10.0,-61.0,-55.67,0.121788,33.07,0.0
62.0,-1.0,14.0,91.72,0.400576,33.87,0.0
30.0,-15.0,54.0,-4.96,8.100093,33.43,0.0
31.0,22.0,51.0,-126.68,0.236914,34.25,0.0
55.0,6.0,30.0,8.37,0.261234,33.43,0.0
-61.0,18.0,-13.0,-9.72,2.361611,31.57,0.0
9.0,-48.0,39.0,-15.62,2.558616,31.75,0.0
17.0,17.0,59.0,42.79,0.24203,34.18,0.0
63.0,5.0,7.0,-9.96,0.377555,33.83,0.0
54.0,21.0,24.0,-36.44,0.293692,35.83,0.0
-32.0,57.0,7.0,-1.35,3.917704,32.43,0.0
-50.0,-21.0,46.0,8.06,2.967002,34.33,0.0
25.0,57.0,13.0,25.37,0.230906,34.05,0.0
53.0,-12.0,-32.0,-19.61,0.414719,34.16,0.0
42.0,-17.0,42.0,-89.82,1.561096,35.81,0.0
-52.0,-25.0,31.0,88.56,2.352656,34.43,0.0
54.0,9.0,31.0,7.42,0.391694,31.17,0.0
-28.0,57.0,10.0,1.98,1.623983,31.91,0.0
49.0,-32.0,23.0,17.01,4.508922,33.75,0.0
-64.0,13.0,-6.0,2.61,0.444862,30.63,0.0
8.0,-58.0,23.0,-12.19,2.511284,31.75,0.0
50.0,-14.0,35.0,9.67,6.080174,33.11,0.0
42.0,19.0,42.0,-41.75,0.254776,34.03,0.0
38.0,-40.0,-33.0,86.51,3.701308,33.84,0.0
60.0,-12.0,13.0,7.43,4.363628,34.59,0.0
31.0,10.0,53.0,12.96,0.372439,34.0,0.0
60.0,-12.0,13.0,8.65,4.355952,34.37,0.0
60.0,-13.0,15.0,0.34,4.73407,33.93,0.0
40.0,19.0,45.0,2.65,0.241987,34.0,0.0
43.0,-44.0,12.0,2.29,3.646314,33.68,0.0
57.0,-27.0,-3.0,-38.58,7.13966,32.89,0.0
-64.0,13.0,-5.0,-2.36,0.446143,30.67,0.0
-62.0,18.0,-10.0,12.01,2.355215,31.57,0.0
34.0,17.0,51.0,41.37,0.231797,34.31,0.0
53.0,8.0,33.0,7.84,0.211292,33.95,0.0
-40.0,-16.0,40.0,19.35,2.456276,34.41,0.0
59.0,-5.0,21.0,13.18,1.000568,35.21,0.0
54.0,12.0,-31.0,25.59,6.723195,33.09,0.0
54.0,9.0,33.0,-17.28,0.210013,33.95,0.0
24.0,-31.0,51.0,-25.01,8.17112,34.79,0.0
-41.0,23.0,44.0,15.16,3.030965,34.31,0.0
-37.0,-12.0,-53.0,27.52,0.105159,33.09,0.0
53.0,8.0,33.0,-0.97,0.212571,33.97,0.0
21.0,-52.0,29.0,-10.59,2.55094,31.71,0.0
56.0,-29.0,-3.0,18.67,7.239442,32.59,0.0
-45.0,-23.0,39.0,52.72,2.561174,34.37,0.0
47.0,-35.0,23.0,-2.87,4.93875,33.23,0.0
-62.0,-16.0,-38.0,-17.6,0.859988,32.55,0.0
38.0,38.0,34.0,18.51,0.646127,35.73,0.0
62.0,-1.0,-12.0,8.58,0.455653,34.34,0.0
54.0,10.0,31.0,6.06,0.391694,31.23,0.0
-64.0,14.0,-5.0,-2.85,0.446143,30.63,0.0
56.0,-29.0,-3.0,13.79,7.211298,32.61,0.0
47.0,1.0,42.0,-17.64,0.368602,33.99,0.0
56.0,22.0,18.0,97.94,0.343664,33.73,0.0
61.0,-2.0,-13.0,9.38,0.458211,34.53,0.0
59.0,-5.0,16.0,-52.01,0.380113,34.03,0.0
61.0,-15.0,-3.0,-44.21,4.90549,33.84,0.0
27.0,-33.0,46.0,21.05,7.998421,34.77,0.0
-62.0,-19.0,3.0,57.57,2.651027,34.37,0.0
36.0,28.0,43.0,13.65,0.348202,33.41,0.0
62.0,-4.0,9.0,-1.74,8.809422,33.0,0.0
-32.0,-8.0,-56.0,5.9,0.121788,33.09,0.0
56.0,-17.0,23.0,-10.02,4.794195,33.79,0.0
17.0,14.0,61.0,12.79,0.248426,34.21,0.0
-63.0,18.0,-10.0,-5.8,2.416619,31.63,0.0
60.0,-4.0,18.0,-49.89,1.390646,33.71,0.0
62.0,-1.0,-13.0,-11.4,0.453094,34.29,0.0
8.0,-14.0,54.0,-40.43,0.363486,33.99,0.0
39.0,-17.0,47.0,-11.3,8.089861,33.43,0.0
-63.0,18.0,-2.0,-0.55,2.323234,31.51,0.0
62.0,-1.0,-12.0,13.82,0.451815,34.29,0.0
28.0,24.0,51.0,-15.93,0.253558,33.27,0.0
56.0,-17.0,23.0,-16.53,4.73535,34.45,0.0
62.0,-2.0,-13.0,-27.05,0.445419,34.27,0.0
43.0,25.0,38.0,20.5,0.291918,33.31,0.0
59.0,-21.0,-2.0,31.62,3.014153,33.81,0.0
17.0,44.0,-12.0,32.83,6.340699,33.11,0.0
57.0,5.0,27.0,-3.44,0.263792,33.45,0.0
-41.0,23.0,44.0,-23.36,3.029685,34.31,0.0
57.0,6.0,27.0,15.42,0.262513,33.43,0.0
20.0,8.0,59.0,-16.8,0.435186,31.61,0.0
54.0,26.0,21.0,-15.0,0.093804,35.95,0.0
44.0,19.0,42.0,-2.7,0.27396,34.03,0.0
53.0,-12.0,-32.0,1.11,0.418557,34.09,0.0
56.0,-29.0,-4.0,21.7,7.166525,32.63,0.0
55.0,-29.0,-8.0,-17.73,6.876135,32.71,0.0
42.0,13.0,-45.0,-39.8,0.114305,35.87,0.0
53.0,10.0,33.0,-4.52,0.392973,31.09,0.0
62.0,12.0,0.0,-119.64,8.026565,34.77,0.0
62.0,-13.0,-6.0,-11.92,4.901652,33.99,0.0
47.0,9.0,42.0,-43.0,0.206176,33.99,0.0
60.0,-4.0,18.0,-14.51,1.118231,34.59,0.0
28.0,25.0,51.0,35.07,0.26763,33.29,0.0
39.0,-42.0,25.0,96.8,2.528585,34.25,0.0
-60.0,-20.0,16.0,17.46,2.775115,34.33,0.0
63.0,0.0,-6.0,16.47,0.195029,34.34,0.0
60.0,-12.0,13.0,18.48,4.338043,33.91,0.0
44.0,-42.0,15.0,16.24,3.646314,33.61,0.0
56.0,-5.0,-8.0,1.94,4.776286,34.45,0.0
-46.0,-21.0,38.0,-62.81,2.553499,34.37,0.0
-64.0,13.0,-5.0,1.92,0.453831,30.61,0.0
61.0,-2.0,-13.0,17.05,0.454373,34.47,0.0
-63.0,2.0,16.0,-26.97,0.183188,31.45,0.0
24.0,57.0,14.0,-131.25,0.296254,34.07,0.0
39.0,13.0,48.0,26.52,0.215168,34.5,0.0
-63.0,1.0,15.0,-50.46,0.18063,31.47,0.0
40.0,14.0,-47.0,9.33,0.111743,35.95,0.0
60.0,-4.0,18.0,29.14,1.432851,33.71,0.0
61.0,-1.0,-12.0,11.72,0.449257,34.23,0.0
60.0,-4.0,18.0,10.33,1.09521,34.71,0.0
42.0,13.0,-45.0,1.52,0.114305,35.91,0.0
28.0,25.0,51.0,-25.51,0.270188,33.25,0.0
57.0,23.0,17.0,-23.44,0.174528,34.16,0.0
-28.0,57.0,9.0,3.71,1.767483,31.93,0.0
-32.0,55.0,11.0,-12.08,3.911298,32.41,0.0
60.0,-12.0,13.0,0.59,4.355952,34.18,0.0
-45.0,-8.0,11.0,-3.42,3.47439,32.47,0.0
60.0,-4.0,19.0,3.41,1.329257,33.75,0.0
62.0,-2.0,-13.0,4.66,0.447978,34.34,0.0
18.0,-31.0,-1.0,20.56,0.24972,33.55,0.0
53.0,-17.0,30.0,-6.5,5.323174,33.0,0.0
61.0,-14.0,9.0,5.97,4.51458,30.19,0.0
-32.0,55.0,10.0,-3.08,3.776846,32.49,0.0
56.0,-28.0,-6.0,-19.3,7.197227,32.57,0.0
59.0,-20.0,-3.0,-51.87,4.613821,33.81,0.0
62.0,12.0,-2.0,-42.83,0.385229,33.84,0.0
59.0,-9.0,19.0,-14.58,8.823491,33.21,0.0
26.0,26.0,51.0,24.88,0.244603,33.25,0.0
60.0,-14.0,12.0,-69.87,6.761573,34.71,0.0
52.0,-19.0,31.0,11.98,5.644266,32.99,0.0
-22.0,-7.0,-26.0,51.27,3.114116,33.81,0.0
56.0,25.0,17.0,-28.67,0.104055,35.91,0.0
41.0,28.0,-21.0,-27.66,6.890206,33.03,0.0
59.0,-5.0,20.0,17.34,1.017096,35.23,0.0
60.0,-15.0,8.0,-4.23,4.546561,30.19,0.0
61.0,-9.0,-2.0,-8.67,4.890139,34.0,0.0
56.0,25.0,18.0,11.02,0.532019,35.77,0.0
32.0,-45.0,-31.0,-1.04,0.24972,33.61,0.0
30.0,4.0,55.0,10.97,0.431082,33.33,0.0
17.0,61.0,7.0,9.63,0.221564,34.37,0.0
30.0,26.0,49.0,-11.8,0.32006,33.34,0.0
52.0,-13.0,-34.0,6.58,0.404486,34.18,0.0
-28.0,57.0,9.0,-3.64,1.975842,31.95,0.0
55.0,-30.0,-5.0,27.98,6.79938,32.83,0.0
59.0,0.0,-19.0,8.55,0.211686,34.27,0.0
53.0,10.0,33.0,-18.31,0.386577,31.05,0.0
36.0,19.0,49.0,28.69,0.229239,34.27,0.0
65.0,-4.0,-9.0,107.27,6.113434,33.07,0.0
21.0,7.0,59.0,-1.05,0.407044,31.59,0.0
33.0,25.0,48.0,-98.89,0.327735,33.33,0.0
-57.0,-7.0,-32.0,-25.38,0.106438,33.07,0.0
62.0,0.0,12.0,-12.46,0.152745,34.61,0.0
-27.0,-10.0,-58.0,30.93,0.123067,32.95,0.0
11.0,-59.0,18.0,19.8,0.189584,31.47,0.0
59.0,-26.0,-10.0,-6.55,6.170558,33.18,0.0
12.0,2.0,61.0,145.59,8.59151,34.77,0.0
-29.0,57.0,9.0,-2.29,1.861015,31.95,0.0
43.0,-45.0,11.0,-31.87,3.315067,33.65,0.0
-50.0,-22.0,33.0,-69.16,3.148656,34.25,0.0
57.0,-23.0,-13.0,-12.55,2.342282,33.91,0.0
-33.0,55.0,9.0,-1.58,0.525581,32.57,0.0
-32.0,-8.0,-55.0,11.42,0.108996,33.11,0.0
-65.0,-1.0,7.0,38.87,0.190863,31.49,0.0
53.0,1.0,34.0,12.49,0.312329,34.0,0.0
27.0,24.0,52.0,-25.53,0.293197,33.31,0.0
60.0,0.0,-19.0,15.33,0.142495,34.11,0.0
62.0,-1.0,-12.0,18.83,0.456932,34.33,0.0
-32.0,-7.0,-55.0,-67.46,0.135859,32.93,0.0
58.0,-2.0,24.0,3.38,0.215129,34.15,0.0
28.0,25.0,51.0,-62.24,0.254837,33.27,0.0
57.0,16.0,23.0,-26.89,0.209124,35.79,0.0
23.0,6.0,58.0,11.63,8.276018,34.77,0.0
75.0,-47.0,3.0,-25.91,6.381635,33.09,0.0
43.0,-43.0,13.0,53.43,3.540161,33.73,0.0
29.0,57.0,3.0,12.96,0.216812,34.07,0.0
20.0,7.0,59.0,-3.43,0.47484,31.61,0.0
57.0,23.0,17.0,24.58,0.175809,34.16,0.0
-61.0,-14.0,13.0,-124.73,3.036082,34.31,0.0
28.0,26.0,51.0,14.48,0.284243,33.29,0.0
36.0,38.0,35.0,-49.56,0.279126,33.29,0.0
47.0,-14.0,40.0,1.59,8.401503,33.34,0.0
-62.0,18.0,-10.0,9.8,2.425574,31.65,0.0
-64.0,13.0,-5.0,-24.04,0.448706,30.65,0.0
60.0,-10.0,17.0,-21.45,4.711044,34.47,0.0
-51.0,-21.0,32.0,31.5,2.640793,34.39,0.0
9.0,-59.0,15.0,-140.7,0.184468,31.45,0.0
62.0,-12.0,9.0,-44.08,4.633009,34.13,0.0
-54.0,19.0,31.0,-33.19,3.10772,34.29,0.0
60.0,-12.0,13.0,15.7,4.354673,34.13,0.0
-21.0,-5.0,-61.0,-38.05,0.120509,33.07,0.0
54.0,5.0,30.0,-9.56,0.334071,34.03,0.0
62.0,12.0,-5.0,-43.15,8.197984,34.79,0.0
-53.0,20.0,31.0,38.23,3.126909,34.29,0.0
58.0,24.0,17.0,27.35,0.347508,35.89,0.0
62.0,-2.0,-13.0,-4.47,0.446698,34.34,0.0
60.0,-4.0,18.0,16.86,1.0351,34.95,0.0
63.0,0.0,-9.0,-19.44,0.20528,34.21,0.0
20.0,7.0,59.0,13.19,0.400648,31.63,0.0
-33.0,-8.0,-58.0,-43.98,0.13458,32.91,0.0
-64.0,14.0,-5.0,0.89,0.442299,30.65,0.0
-21.0,-5.0,-61.0,16.61,0.11923,33.07,0.0
53.0,-17.0,30.0,10.22,5.232347,33.18,0.0
41.0,13.0,-46.0,14.82,0.113024,35.93,0.0
54.0,10.0,32.0,-1.4,0.394252,31.19,0.0
52.0,6.0,36.0,-11.8,0.226639,33.95,0.0
61.0,0.0,-18.0,-25.98,0.189904,34.21,0.0
-33.0,-6.0,-56.0,3.25,0.11923,33.07,0.0
55.0,-17.0,24.0,-26.76,4.737908,34.39,0.0
-58.0,-10.0,-29.0,-7.91,4.451129,32.34,0.0
60.0,19.0,1.0,6.45,0.373134,35.89,0.0
28.0,25.0,51.0,40.44,0.263792,33.27,0.0
-65.0,-1.0,8.0,22.81,0.194701,31.47,0.0
59.0,-4.0,20.0,-12.38,1.003126,35.18,0.0
45.0,-4.0,-24.0,56.26,6.784599,33.0,0.0
53.0,-12.0,-32.0,17.88,0.415998,34.07,0.0
62.0,-2.0,-13.0,19.28,0.442861,34.21,0.0
51.0,-36.0,-15.0,-2.31,0.240766,33.59,0.0
56.0,23.0,17.0,-5.67,0.188623,33.71,0.0
62.0,-2.0,-12.0,11.47,0.450536,34.25,0.0
62.0,-2.0,-13.0,3.62,0.437744,34.23,0.0
38.0,-44.0,-25.0,-9.22,0.235649,33.53,0.0
22.0,8.0,58.0,16.59,0.253543,34.0,0.0
6.0,19.0,57.0,37.05,0.275289,33.49,0.0
28.0,25.0,51.0,45.55,0.295756,33.31,0.0
60.0,-4.0,18.0,-11.94,1.180899,34.25,0.0
61.0,-15.0,7.0,20.08,6.968974,34.71,0.0
-31.0,57.0,10.0,-1.89,4.100923,32.37,0.0
52.0,-27.0,-5.0,-30.59,6.533866,33.15,0.0
54.0,16.0,-4.0,12.32,0.141213,35.89,0.0
-65.0,-1.0,8.0,15.25,0.193422,31.49,0.0
17.0,61.0,6.0,33.78,0.221564,34.39,0.0
25.0,57.0,14.0,25.53,0.246282,34.03,0.0
63.0,-7.0,5.0,39.84,8.223729,33.47,0.0
13.0,-9.0,61.0,17.32,4.605578,32.68,0.0
57.0,23.0,17.0,-20.04,0.179653,33.91,0.0
62.0,-1.0,-13.0,7.94,0.446698,34.25,0.0
55.0,-27.0,-4.0,-1.82,7.20874,32.57,0.0
-53.0,19.0,31.0,9.14,3.108999,34.29,0.0
-62.0,19.0,-3.0,4.93,2.337305,31.51,0.0
-62.0,-21.0,14.0,-14.34,2.736737,34.37,0.0
29.0,28.0,48.0,18.72,0.294477,33.31,0.0
56.0,-17.0,24.0,6.23,4.80187,33.79,0.0
54.0,25.0,20.0,9.14,0.429513,35.81,0.0
-31.0,-7.0,-56.0,37.29,0.11923,33.05,0.0
58.0,-22.0,-5.0,-7.84,2.996245,33.77,0.0
-64.0,-13.0,0.0,18.53,2.940138,34.31,0.0
6.0,-53.0,32.0,-14.81,2.507446,31.73,0.0
-62.0,20.0,-3.0,-1.42,2.333468,31.51,0.0
-65.0,0.0,6.0,-2.21,0.189584,31.47,0.0
39.0,-16.0,46.0,26.43,2.550787,33.87,0.0
-31.0,-7.0,-56.0,18.76,0.11923,33.09,0.0
-30.0,-8.0,-57.0,34.92,0.117951,33.11,0.0
60.0,-16.0,10.0,4.64,4.626613,34.16,0.0
58.0,20.0,-20.0,-28.24,0.239472,34.13,0.0
-45.0,-23.0,41.0,67.23,2.791745,34.37,0.0
63.0,0.0,-3.0,-29.07,0.214249,34.37,0.0
58.0,0.0,-19.0,-63.31,0.211686,34.25,0.0
-27.0,57.0,12.0,-11.15,3.302782,32.49,0.0
-48.0,-9.0,-43.0,58.21,0.116671,33.05,0.0
16.0,7.0,59.0,9.44,0.510657,31.55,0.0
20.0,7.0,59.0,14.76,0.408323,31.61,0.0
50.0,29.0,38.0,-55.44,0.694817,35.73,0.0
20.0,7.0,59.0,9.06,0.435186,31.57,0.0
-34.0,0.0,54.0,9.86,2.553499,31.77,0.0
-19.0,-11.0,-61.0,-58.45,0.120509,32.99,0.0
-32.0,56.0,10.0,2.08,3.333532,32.13,0.0
25.0,57.0,14.0,26.79,0.23475,34.03,0.0
53.0,8.0,33.0,-46.93,0.208734,33.97,0.0
51.0,9.0,35.0,6.72,0.390415,31.01,0.0
40.0,29.0,38.0,36.27,0.491086,35.84,0.0
50.0,32.0,26.0,3.73,0.489804,35.83,0.0
47.0,-5.0,42.0,0.85,0.210013,34.13,0.0
57.0,23.0,17.0,-6.34,0.174528,34.16,0.0
57.0,6.0,26.0,25.56,0.261234,33.43,0.0
-32.0,-8.0,-56.0,32.14,0.135859,32.91,0.0
55.0,-30.0,-4.0,1.62,7.162687,32.61,0.0
59.0,-4.0,20.0,-44.38,1.013358,35.18,0.0
-53.0,-22.0,30.0,34.22,2.90176,34.29,0.0
31.0,26.0,49.0,6.48,0.325177,33.34,0.0
55.0,6.0,31.0,30.18,0.259954,33.47,0.0
29.0,3.0,56.0,-13.74,0.378636,33.33,0.0
-64.0,13.0,-5.0,7.43,0.441018,30.65,0.0
57.0,-25.0,-7.0,-49.73,6.704007,33.0,0.0
54.0,9.0,32.0,10.64,0.372506,31.21,0.0
56.0,-29.0,-4.0,-7.64,7.224091,32.63,0.0
-20.0,-11.0,-60.0,-60.15,0.124346,33.0,0.0
-32.0,55.0,9.0,-3.95,3.08625,32.13,0.0
58.0,-21.0,-10.0,6.63,2.129939,34.03,0.0
-20.0,-6.0,-61.0,19.83,0.123067,33.07,0.0
53.0,9.0,32.0,6.5,0.391694,31.03,0.0
26.0,25.0,52.0,52.98,0.245883,33.25,0.0
37.0,-39.0,29.0,158.18,6.637486,34.79,0.0
19.0,19.0,56.0,-19.78,0.215168,34.47,0.0
68.0,-24.0,-8.0,37.29,6.500606,32.97,0.0
58.0,12.0,18.0,-28.75,0.241157,35.75,0.0
58.0,25.0,6.0,12.2,0.115587,35.87,0.0
55.0,6.0,31.0,-29.84,0.261234,33.45,0.0
-64.0,13.0,-6.0,0.99,0.45255,30.65,0.0
52.0,7.0,36.0,19.14,0.235592,33.97,0.0
54.0,-27.0,2.0,-9.95,6.636206,32.95,0.0
-20.0,-4.0,-61.0,6.6,0.120509,33.05,0.0
-29.0,57.0,10.0,2.36,1.974561,31.97,0.0
60.0,-13.0,14.0,22.01,4.731512,33.93,0.0
49.0,-3.0,39.0,48.42,0.21385,34.15,0.0
57.0,5.0,27.0,-14.44,0.263792,33.41,0.0
-32.0,-8.0,-56.0,27.4,0.121788,33.05,0.0
13.0,-9.0,61.0,-0.61,4.439315,32.66,0.0
20.0,7.0,59.0,14.55,0.478678,31.61,0.0
53.0,10.0,32.0,3.86,0.392973,31.03,0.0
57.0,23.0,17.0,32.49,0.184779,33.79,0.0
-23.0,-10.0,-59.0,-24.99,0.129463,32.95,0.0
59.0,-22.0,-3.0,15.12,4.90549,33.81,0.0
25.0,-36.0,44.0,-8.45,7.967719,34.71,0.0
63.0,0.0,-5.0,3.56,0.175809,34.41,0.0
51.0,6.0,36.0,-7.92,0.221524,33.93,0.0
63.0,-1.0,-3.0,-12.8,7.671996,33.37,0.0
-62.0,1.0,19.0,23.05,0.189584,31.41,0.0
62.0,0.0,12.0,15.95,0.155308,34.61,0.0
62.0,8.0,-10.0,6.66,1.02349,33.91,0.0
28.0,25.0,51.0,70.31,0.251,33.27,0.0
17.0,-53.0,27.0,-64.08,7.986908,34.79,0.0
57.0,-28.0,-2.0,-72.24,6.430247,32.97,0.0
51.0,17.0,24.0,102.39,0.236914,34.11,0.0
35.0,24.0,47.0,-1.41,0.279126,33.39,0.0
-63.0,2.0,18.0,19.01,0.193422,31.41,0.0
-29.0,57.0,9.0,6.64,4.337667,32.25,0.0
49.0,18.0,37.0,-135.47,6.531308,34.79,0.0
24.0,57.0,14.0,40.81,0.239876,34.03,0.0
-33.0,-6.0,-55.0,-115.09,0.115392,33.11,0.0
-32.0,-24.0,41.0,-115.61,2.961885,34.31,0.0
53.0,10.0,33.0,-24.12,0.391694,31.05,0.0
57.0,-28.0,-3.0,-33.35,7.011735,32.87,0.0
59.0,6.0,22.0,31.56,0.362208,34.03,0.0
20.0,8.0,59.0,4.09,0.441582,31.57,0.0
53.0,-1.0,-24.0,113.01,6.379076,33.18,0.0
-53.0,-21.0,30.0,-9.77,2.896643,34.33,0.0
60.0,-15.0,8.0,-7.28,4.518417,30.13,0.0
43.0,24.0,40.0,35.53,0.297035,33.31,0.0
52.0,-13.0,34.0,25.52,6.210658,33.07,0.0
29.0,24.0,50.0,-18.64,0.266351,33.29,0.0
54.0,10.0,32.0,6.87,0.400648,31.13,0.0
50.0,31.0,24.0,24.47,0.383385,35.84,0.0
62.0,-2.0,-14.0,8.34,0.454373,34.45,0.0
-52.0,58.0,3.0,-21.29,3.922829,32.37,0.0
20.0,7.0,59.0,12.61,0.445419,31.59,0.0
-61.0,20.0,-10.0,0.64,2.41406,31.65,0.0
60.0,-4.0,18.0,-1.75,1.125905,34.53,0.0
60.0,-1.0,-23.0,-77.32,0.198873,34.16,0.0
62.0,-1.0,-13.0,17.44,0.453094,34.33,0.0
50.0,31.0,24.0,-27.56,0.384666,35.83,0.0
54.0,10.0,32.0,1.62,0.391694,31.17,0.0
39.0,-43.0,24.0,21.99,2.641132,34.21,0.0
-64.0,14.0,-5.0,5.97,0.442299,30.65,0.0
54.0,10.0,32.0,10.05,0.390415,31.23,0.0
53.0,10.0,33.0,-8.64,0.389135,31.03,0.0
46.0,34.0,28.0,-29.79,0.127119,35.91,0.0
56.0,-27.0,2.0,-3.87,6.719357,32.99,0.0
-18.0,62.0,11.0,110.2,2.151685,32.27,0.0
-20.0,-11.0,-60.0,-45.04,0.125626,32.99,0.0
21.0,7.0,59.0,-25.98,0.422394,31.59,0.0
-55.0,-16.0,-44.0,58.87,4.832943,32.27,0.0
30.0,-5.0,55.0,-68.78,0.249705,34.15,0.0
13.0,-9.0,61.0,-1.11,4.438036,32.68,0.0
50.0,15.0,35.0,66.44,0.236914,34.21,0.0
43.0,-44.0,13.0,91.32,3.61434,33.65,0.0
-28.0,57.0,9.0,4.65,1.867421,31.95,0.0
38.0,-42.0,26.0,-30.17,2.757516,34.21,0.0
62.0,0.0,12.0,5.02,0.162996,34.59,0.0
20.0,7.0,59.0,-22.38,0.442861,31.59,0.0
-21.0,-11.0,-60.0,-9.54,0.125626,33.0,0.0
52.0,-19.0,30.0,-3.78,5.91643,33.03,0.0
57.0,6.0,27.0,14.33,0.262513,33.41,0.0
53.0,9.0,33.0,5.71,0.210013,33.97,0.0
62.0,-8.0,8.0,-9.9,8.337555,33.47,0.0
52.0,-13.0,-34.0,7.82,0.41344,34.18,0.0
53.0,25.0,25.0,-24.43,0.726851,35.71,0.0
20.0,7.0,59.0,-17.86,0.473561,31.59,0.0
54.0,10.0,31.0,18.2,0.392973,31.21,0.0
56.0,19.0,23.0,-16.45,0.187341,35.83,0.0
19.0,61.0,6.0,-37.12,0.261218,33.55,0.0
20.0,8.0,59.0,14.36,0.390415,31.65,0.0
13.0,-9.0,61.0,3.81,4.950353,32.75,0.0
44.0,-15.0,1.0,114.54,7.119193,34.71,0.0
49.0,15.0,39.0,15.06,0.38274,31.01,0.0
55.0,26.0,16.0,23.22,0.33541,33.39,0.0
-62.0,19.0,1.0,-59.94,2.36417,31.55,0.0
47.0,-35.0,23.0,-13.14,4.838969,33.27,0.0
38.0,49.0,-9.0,12.57,0.263776,33.57,0.0
20.0,7.0,59.0,24.83,0.423673,31.59,0.0
66.0,26.0,18.0,54.65,6.600387,34.79,0.0
30.0,18.0,52.0,-35.69,0.233076,34.27,0.0
54.0,6.0,32.0,21.84,0.257396,33.47,0.0
-52.0,-20.0,32.0,-33.72,2.399989,34.41,0.0
53.0,16.0,-27.0,-6.2,6.794833,32.93,0.0
53.0,10.0,33.0,-9.1,0.387856,31.03,0.0
-41.0,24.0,44.0,48.34,3.079576,34.31,0.0
29.0,16.0,53.0,-68.27,0.213889,34.49,0.0
31.0,-33.0,43.0,-40.08,0.240766,33.55,0.0
60.0,-4.0,18.0,10.06,1.1566,34.37,0.0
57.0,-13.0,-23.0,9.51,0.41344,34.31,0.0
58.0,25.0,6.0,-14.06,0.115587,35.87,0.0
54.0,10.0,32.0,16.81,0.391694,31.03,0.0
21.0,-33.0,48.0,101.91,8.132742,34.77,0.0
56.0,7.0,28.0,-1.52,0.234313,33.99,0.0
58.0,5.0,26.0,57.17,0.259954,33.43,0.0
3.0,8.0,62.0,70.49,0.385948,35.91,0.0
-18.0,-6.0,-61.0,21.24,0.120509,33.05,0.0
71.0,-13.0,-31.0,2.91,2.305186,34.07,0.0
38.0,-38.0,-32.0,42.53,3.716655,33.83,0.0
-64.0,14.0,-6.0,-7.52,0.455112,30.61,0.0
-32.0,56.0,11.0,4.38,3.989166,32.18,0.0
62.0,8.0,-9.0,78.4,1.03628,33.81,0.0
58.0,-23.0,-4.0,-35.24,3.041016,33.77,0.0
-63.0,1.0,17.0,-38.8,0.181909,31.43,0.0
63.0,17.0,-1.0,-140.77,1.003027,33.79,0.0
53.0,10.0,33.0,-27.08,0.390415,31.05,0.0
-65.0,-1.0,3.0,17.76,0.181909,31.47,0.0
27.0,26.0,51.0,-0.9,0.261234,33.27,0.0
54.0,15.0,18.0,32.85,0.247564,35.75,0.0
-62.0,-19.0,4.0,42.96,2.653585,34.34,0.0
-63.0,14.0,-4.0,-1.49,0.442299,30.57,0.0
38.0,-43.0,23.0,-37.62,3.348693,33.84,0.0
20.0,8.0,59.0,-45.39,0.390415,31.61,0.0
60.0,-4.0,18.0,7.98,1.248683,33.95,0.0
-24.0,-10.0,-59.0,-29.29,0.126905,32.97,0.0
57.0,23.0,17.0,20.09,0.256533,33.66,0.0
60.0,-4.0,18.0,-24.08,1.104163,34.71,0.0
56.0,-30.0,-5.0,2.08,6.885089,32.81,0.0
57.0,29.0,10.0,23.48,0.84217,35.71,0.0
32.0,15.0,51.0,-82.32,0.244589,34.21,0.0
-23.0,-8.0,-59.0,11.91,0.120509,33.0,0.0
-20.0,-12.0,-60.0,13.02,0.124346,33.0,0.0
37.0,20.0,47.0,-4.75,0.234355,34.31,0.0
-63.0,2.0,18.0,11.61,0.192143,31.41,0.0
51.0,11.0,-36.0,-8.84,0.867459,34.09,0.0
-19.0,-6.0,-61.0,-30.26,0.11923,33.07,0.0
-29.0,57.0,9.0,-2.62,1.802077,31.95,0.0
42.0,20.0,42.0,-1.3,0.257334,34.03,0.0
20.0,8.0,59.0,26.02,0.430069,31.59,0.0
13.0,-8.0,61.0,-14.56,5.055873,32.73,0.0
59.0,-5.0,-23.0,1.8,4.798033,34.59,0.0
54.0,6.0,32.0,-23.33,0.257396,33.47,0.0
59.0,-4.0,21.0,5.76,1.009521,35.21,0.0
-19.0,-4.0,-61.0,-60.81,0.120509,33.09,0.0
-63.0,19.0,-2.0,3.83,2.334747,31.53,0.0
52.0,-13.0,-34.0,9.99,0.41344,34.21,0.0
-64.0,14.0,-5.0,-4.84,0.441018,30.65,0.0
13.0,14.0,59.0,-178.24,0.249705,34.16,0.0
32.0,15.0,52.0,-76.18,0.216447,34.55,0.0
-52.0,16.0,35.0,-24.77,2.506166,34.39,0.0
52.0,0.0,36.0,-23.75,0.360929,34.0,0.0
38.0,13.0,48.0,-15.91,0.215168,34.5,0.0
20.0,7.0,59.0,17.16,0.464607,31.59,0.0
57.0,19.0,19.0,-16.58,0.256533,35.79,0.0
-63.0,17.0,-3.0,-5.11,2.548382,31.81,0.0
-53.0,-18.0,30.0,29.35,2.393592,34.43,0.0
60.0,-17.0,11.0,-6.7,4.626613,34.18,0.0
60.0,-5.0,21.0,6.68,1.009422,35.23,0.0
57.0,-25.0,-10.0,-31.95,7.738733,34.68,0.0
-41.0,23.0,44.0,-6.31,3.070621,34.31,0.0
-63.0,9.0,17.0,-0.47,3.135863,33.77,0.0
-60.0,-20.0,16.0,-58.0,2.795583,34.33,0.0
60.0,-4.0,18.0,6.33,1.554351,33.97,0.0
57.0,23.0,17.0,14.34,0.192467,33.71,0.0
62.0,0.0,12.0,-27.12,0.154027,34.63,0.0
30.0,3.0,55.0,-3.88,0.377356,33.33,0.0
62.0,8.0,-10.0,-119.77,0.991517,34.05,0.0
24.0,57.0,13.0,31.48,0.233469,34.03,0.0
56.0,-17.0,23.0,2.66,4.760934,34.18,0.0
40.0,19.0,45.0,8.97,0.235592,34.0,0.0
13.0,-9.0,61.0,-7.59,4.574883,32.68,0.0
36.0,14.0,50.0,-8.72,0.216447,34.5,0.0
57.0,-23.0,-5.0,-112.96,6.386752,33.11,0.0
-64.0,14.0,-4.0,-7.54,0.443581,30.59,0.0
-33.0,-6.0,-56.0,-62.09,0.112834,33.13,0.0
59.0,-4.0,21.0,-1.08,1.019654,35.23,0.0
55.0,5.0,30.0,5.57,0.261234,33.45,0.0
48.0,-33.0,22.0,6.12,4.6829,33.53,0.0
59.0,-15.0,11.0,-55.14,6.716799,34.77,0.0
40.0,26.0,39.0,27.85,0.22668,34.27,0.0
-61.0,19.0,-10.0,-0.13,2.424294,31.67,0.0
-62.0,1.0,18.0,15.63,0.190863,31.41,0.0
57.0,-22.0,-13.0,-29.38,1.996904,33.97,0.0
57.0,-27.0,1.0,4.54,6.5441,32.95,0.0
-29.0,57.0,10.0,11.54,2.051436,31.97,0.0
62.0,-5.0,9.0,4.04,8.782565,32.99,0.0
57.0,5.0,27.0,2.19,0.261234,33.39,0.0
53.0,-17.0,30.0,8.2,5.272004,33.07,0.0
-60.0,14.0,21.0,-30.02,2.493374,34.37,0.0
47.0,-19.0,-28.0,-27.79,2.104355,33.97,0.0
60.0,-12.0,13.0,-5.43,4.352115,33.97,0.0
13.0,-9.0,61.0,1.61,4.379205,32.65,0.0
29.0,27.0,50.0,-14.33,0.27401,33.49,0.0
56.0,18.0,23.0,3.46,0.180935,35.87,0.0
53.0,-31.0,4.0,47.08,6.473741,32.99,0.0
20.0,-10.0,59.0,4.81,3.472377,32.5,0.0
63.0,5.0,6.0,51.95,0.376276,33.81,0.0
56.0,-14.0,26.0,12.27,5.771874,33.05,0.0
-17.0,-8.0,-62.0,4.07,0.123067,33.05,0.0
56.0,-28.0,-4.0,-19.88,6.45967,33.18,0.0
-31.0,57.0,9.0,-4.36,2.598934,32.07,0.0
-49.0,-12.0,-42.0,-38.43,2.389755,34.39,0.0
-66.0,-2.0,6.0,3.26,0.183188,31.45,0.0
-62.0,18.0,-9.0,4.33,2.437087,31.67,0.0
56.0,-11.0,25.0,3.65,4.688017,34.25,0.0
-65.0,-1.0,8.0,4.15,0.185747,31.47,0.0
28.0,26.0,50.0,16.64,0.285522,33.31,0.0
-18.0,18.0,-57.0,-89.71,3.029685,33.81,0.0
20.0,7.0,59.0,21.17,0.432627,31.57,0.0
58.0,-22.0,-13.0,-3.64,2.071097,34.0,0.0
51.0,-13.0,-34.0,-23.97,0.41344,34.18,0.0
55.0,7.0,31.0,1.94,0.233034,33.97,0.0
20.0,8.0,59.0,13.11,0.401927,31.63,0.0
47.0,32.0,32.0,15.29,0.48596,35.81,0.0
47.0,28.0,34.0,53.11,0.341806,33.39,0.0
-64.0,13.0,-5.0,12.51,0.443581,30.65,0.0
-33.0,55.0,9.0,1.06,3.068312,32.13,0.0
-62.0,20.0,-3.0,-6.41,2.351377,31.53,0.0
37.0,38.0,35.0,15.34,0.652533,35.75,0.0
42.0,-44.0,14.0,71.09,3.48133,33.65,0.0
35.0,20.0,40.0,51.71,8.816658,34.79,0.0
37.0,-38.0,-34.0,-9.96,3.497956,33.84,0.0
-34.0,-5.0,-55.0,7.17,0.112834,33.11,0.0
-35.0,-5.0,-54.0,30.4,0.117951,33.09,0.0
57.0,23.0,17.0,-19.72,0.203999,33.65,0.0
-64.0,13.0,-5.0,6.88,0.449987,30.61,0.0
4.0,11.0,62.0,27.41,0.514495,31.57,0.0
57.0,13.0,-25.0,-44.53,0.148901,35.89,0.0
62.0,0.0,12.0,2.38,0.155308,34.63,0.0
59.0,1.0,-16.0,8.84,0.198873,34.18,0.0
60.0,-4.0,18.0,-1.11,1.099047,34.71,0.0
-47.0,-29.0,34.0,-52.4,3.013055,34.31,0.0
30.0,26.0,49.0,0.95,0.311106,33.34,0.0
56.0,-30.0,-6.0,-7.9,6.540262,33.07,0.0
-30.0,57.0,10.0,-12.26,2.275656,31.99,0.0
-67.0,1.0,13.0,-168.94,0.181909,31.45,0.0
60.0,0.0,-20.0,14.57,0.151464,34.11,0.0
20.0,8.0,59.0,-22.49,0.391694,31.65,0.0
31.0,2.0,55.0,12.72,0.370961,33.33,0.0
-60.0,13.0,21.0,60.84,2.502329,34.37,0.0
44.0,-43.0,11.0,120.53,3.753745,33.73,0.0
49.0,12.0,-38.0,20.08,0.826533,34.18,0.0
57.0,5.0,27.0,38.94,0.259954,33.45,0.0
-66.0,9.0,-52.0,7.37,0.599894,32.53,0.0
20.0,8.0,59.0,24.75,0.390415,31.61,0.0
60.0,4.0,20.0,-6.39,0.320002,34.03,0.0
23.0,58.0,3.0,6.66,0.244589,33.97,0.0
55.0,-15.0,-27.0,-14.94,6.951611,34.68,0.0
-65.0,0.0,8.0,18.18,0.194701,31.43,0.0
18.0,13.0,59.0,-31.67,0.248426,34.25,0.0
52.0,-17.0,30.0,-3.03,5.284796,33.16,0.0
41.0,13.0,-46.0,-3.46,0.113024,35.93,0.0
-63.0,19.0,-3.0,10.67,2.366728,31.53,0.0
41.0,21.0,43.0,3.82,0.233076,34.27,0.0
-33.0,55.0,9.0,-3.88,3.819047,32.37,0.0
59.0,-4.0,21.0,4.28,0.991616,35.23,0.0
-29.0,56.0,9.0,0.17,4.448567,32.27,0.0
62.0,8.0,-9.0,-176.62,1.040117,33.87,0.0
-21.0,-11.0,-60.0,32.64,0.124346,33.0,0.0
58.0,31.0,2.0,7.83,0.329014,33.39,0.0
38.0,-42.0,25.0,153.64,3.100578,34.05,0.0
62.0,-2.0,-13.0,5.24,0.446698,34.33,0.0
60.0,-4.0,18.0,11.24,1.352278,33.73,0.0
-63.0,2.0,17.0,-10.96,0.183188,31.43,0.0
-22.0,-4.0,-61.0,27.11,0.121788,33.07,0.0
13.0,-9.0,61.0,-12.84,5.022621,32.77,0.0
-33.0,0.0,55.0,7.41,2.541986,31.77,0.0
35.0,16.0,50.0,-16.05,0.21133,34.5,0.0
6.0,-59.0,19.0,-12.11,0.235649,33.5,0.0
-62.0,1.0,19.0,13.02,0.192143,31.43,0.0
-33.0,-8.0,-55.0,-26.3,0.110275,33.11,0.0
61.0,-14.0,8.0,5.35,4.561912,30.15,0.0
58.0,0.0,-26.0,46.18,0.191185,34.15,0.0
35.0,-47.0,-21.0,-40.23,0.235649,33.57,0.0
62.0,8.0,-10.0,-34.92,1.022211,33.93,0.0
28.0,57.0,3.0,-2.91,0.255252,34.09,0.0
39.0,-42.0,24.0,-72.79,2.503006,34.23,0.0
20.0,7.0,59.0,-25.46,0.394252,31.61,0.0
26.0,3.0,58.0,17.83,0.37116,34.0,0.0
55.0,-29.0,-4.0,-8.34,6.95289,32.77,0.0
-53.0,-20.0,31.0,42.92,2.433249,34.43,0.0
42.0,19.0,43.0,-13.84,0.253497,34.0,0.0
-29.0,55.0,5.0,-5.15,4.71763,32.27,0.0
-20.0,-7.0,-61.0,-25.51,0.123067,33.07,0.0
52.0,-13.0,-34.0,-25.38,0.412161,34.16,0.0
39.0,-42.0,25.0,-92.67,2.708916,34.16,0.0
42.0,13.0,-45.0,3.9,0.115587,35.83,0.0
-62.0,-9.0,-12.0,71.47,0.120509,33.07,0.0
-19.0,-6.0,-62.0,17.31,0.11923,33.09,0.0
10.0,11.0,61.0,6.08,0.249705,34.16,0.0
63.0,0.0,-4.0,-30.13,0.207842,34.37,0.0
59.0,-4.0,21.0,-2.9,1.000568,35.23,0.0
14.0,-9.0,61.0,4.44,4.611973,32.68,0.0
62.0,8.0,-9.0,-66.59,1.050348,33.79,0.0
60.0,-4.0,18.0,-2.69,1.0837,34.77,0.0
54.0,10.0,31.0,6.14,0.39809,31.23,0.0
63.0,-6.0,4.0,13.02,8.806928,33.5,0.0
20.0,8.0,59.0,26.08,0.400648,31.61,0.0
-24.0,51.0,-13.0,-36.82,3.187029,32.49,0.0
61.0,-4.0,6.0,156.29,5.495872,32.99,0.0
57.0,5.0,26.0,19.98,0.261234,33.43,0.0
-33.0,-8.0,-55.0,27.26,0.108996,33.09,0.0
57.0,-23.0,-15.0,-6.24,2.245064,34.05,0.0
-40.0,24.0,44.0,-21.0,3.078297,34.31,0.0
-21.0,-11.0,-60.0,-65.91,0.125626,32.95,0.0
20.0,7.0,59.0,-3.97,0.472282,31.57,0.0
20.0,61.0,5.0,25.28,0.225401,34.33,0.0
56.0,-28.0,-5.0,-25.58,7.195948,32.57,0.0
52.0,-17.0,30.0,-20.5,5.490756,32.95,0.0
57.0,5.0,27.0,4.77,0.262513,33.43,0.0
11.0,24.0,57.0,-39.61,1.271704,34.34,0.0
8.0,-53.0,33.0,-26.41,2.529193,31.73,0.0
20.0,7.0,59.0,-33.29,0.495307,31.59,0.0
-51.0,-23.0,33.0,-30.0,3.144818,34.25,0.0
-30.0,56.0,10.0,-2.89,3.502578,32.18,0.0
66.0,11.0,-8.0,-14.03,0.484679,35.83,0.0
-64.0,0.0,8.0,-5.39,0.193422,31.49,0.0
53.0,-10.0,-31.0,14.06,0.414719,34.15,0.0
58.0,4.0,25.0,-57.02,0.248441,33.49,0.0
-33.0,-6.0,-55.0,-5.5,0.114113,33.13,0.0
52.0,22.0,30.0,-139.04,0.496211,35.83,0.0
-35.0,-6.0,-54.0,2.7,0.117951,33.11,0.0
52.0,-18.0,30.0,11.54,5.486917,32.95,0.0
-64.0,14.0,-4.0,8.61,0.442299,30.63,0.0
56.0,-11.0,26.0,1.07,4.684179,34.27,0.0
-63.0,16.0,-3.0,-0.74,2.547103,31.83,0.0
-21.0,-11.0,-60.0,28.54,0.125626,33.0,0.0
55.0,25.0,20.0,11.25,0.105336,35.91,0.0
-62.0,21.0,-6.0,10.44,2.306603,31.49,0.0
49.0,31.0,25.0,-2.14,0.688411,35.73,0.0
56.0,-10.0,23.0,15.08,8.851628,33.23,0.0
14.0,-9.0,61.0,-20.52,4.214221,32.65,0.0
28.0,27.0,50.0,12.07,0.277847,33.45,0.0
56.0,-22.0,-17.0,6.92,2.182385,33.97,0.0
64.0,17.0,7.0,182.85,0.910943,34.16,0.0
-54.0,-22.0,28.0,14.07,2.355215,34.39,0.0
20.0,7.0,59.0,-17.87,0.497865,31.59,0.0
53.0,8.0,33.0,22.13,0.212571,33.97,0.0
-19.0,-4.0,-61.0,33.04,0.121788,33.07,0.0
20.0,7.0,59.0,13.13,0.404486,31.61,0.0
58.0,17.0,19.0,15.15,0.168121,35.91,0.0
41.0,13.0,-47.0,6.6,0.114305,35.95,0.0
-15.0,-7.0,-43.0,8.66,3.151214,33.83,0.0
34.0,23.0,48.0,-10.07,0.251,33.23,0.0
57.0,23.0,17.0,-30.44,0.180935,33.89,0.0
40.0,45.0,22.0,-117.07,1.24219,33.87,0.0
57.0,23.0,17.0,18.98,0.184779,33.75,0.0
20.0,8.0,59.0,22.92,0.399369,31.61,0.0
-23.0,-12.0,-58.0,10.97,0.126905,32.97,0.0
-54.0,-22.0,-68.0,-4.0,3.470546,32.47,0.0
-62.0,18.0,-10.0,0.7,2.463951,31.73,0.0
-16.0,60.0,12.0,-23.67,2.085688,32.23,0.0
-19.0,61.0,8.0,23.23,2.191339,32.29,0.0
62.0,-2.0,-13.0,8.76,0.447978,34.33,0.0
-65.0,0.0,8.0,-0.7,0.194701,31.43,0.0
60.0,-4.0,18.0,-1.23,1.389367,33.73,0.0
60.0,-11.0,13.0,-13.35,4.35979,34.11,0.0
53.0,-1.0,35.0,-36.45,0.390344,33.95,0.0
59.0,-22.0,-3.0,53.14,2.964265,33.75,0.0
54.0,10.0,32.0,-9.49,0.385298,31.21,0.0
21.0,7.0,59.0,-33.0,0.431348,31.57,0.0
53.0,10.0,33.0,14.96,0.389135,31.03,0.0
53.0,-12.0,-31.0,11.13,0.427511,34.07,0.0
56.0,23.0,17.0,9.17,0.174528,34.16,0.0
-31.0,56.0,9.0,-2.2,2.197499,31.97,0.0
47.0,18.0,37.0,12.55,0.213889,34.43,0.0
-62.0,17.0,-9.0,-7.98,2.492095,31.75,0.0
52.0,10.0,34.0,7.56,0.392973,31.03,0.0
57.0,23.0,17.0,-2.57,0.197592,33.68,0.0
-20.0,-11.0,-61.0,-11.69,0.126905,32.97,0.0
50.0,10.0,34.0,38.01,0.210013,33.99,0.0
61.0,-3.0,-17.0,-90.7,7.091049,32.95,0.0
-52.0,16.0,35.0,-21.85,2.507446,34.39,0.0
-65.0,-1.0,8.0,26.79,0.19598,31.47,0.0
63.0,0.0,-8.0,16.52,0.193748,34.31,0.0
-64.0,14.0,-5.0,7.29,0.441018,30.65,0.0
63.0,0.0,12.0,12.83,0.150183,34.61,0.0
32.0,-43.0,-27.0,34.17,3.451914,33.75,0.0
-50.0,-17.0,33.0,-86.89,0.106438,33.07,0.0
62.0,-1.0,-13.0,24.3,0.442861,34.29,0.0
30.0,14.0,54.0,51.89,0.248441,33.5,0.0
-56.0,-22.0,25.0,-93.53,2.894085,34.31,0.0
60.0,-4.0,17.0,-25.37,1.593998,34.05,0.0
56.0,23.0,17.0,-46.98,0.177091,33.95,0.0
58.0,-22.0,-13.0,-22.95,2.048071,33.99,0.0
-63.0,17.0,6.0,2.28,2.557337,31.85,0.0
60.0,-4.0,18.0,-1.52,1.142531,34.43,0.0
19.0,23.0,58.0,-145.01,0.24331,34.18,0.0
54.0,10.0,31.0,-20.84,0.392973,31.17,0.0
20.0,-9.0,59.0,-10.95,3.620735,32.57,0.0
38.0,-43.0,24.0,173.41,3.02512,34.0,0.0
-52.0,-20.0,32.0,-57.91,2.384638,34.41,0.0
-62.0,21.0,-5.0,-5.27,2.314279,31.45,0.0
59.0,-17.0,11.0,-25.75,4.613821,34.18,0.0
-63.0,19.0,-4.0,-3.83,2.338585,31.51,0.0
57.0,23.0,17.0,25.99,0.188623,33.73,0.0
54.0,10.0,32.0,-8.85,0.395531,31.13,0.0
58.0,17.0,20.0,-37.83,0.26294,35.79,0.0
20.0,7.0,59.0,-30.84,0.426232,31.59,0.0
52.0,-30.0,19.0,52.77,4.64836,34.37,0.0
23.0,-51.0,27.0,-4.04,2.579084,31.75,0.0
-24.0,-10.0,-61.0,-50.44,0.125626,32.97,0.0
46.0,0.0,43.0,12.57,0.21385,34.09,0.0
18.0,61.0,5.0,20.18,0.217726,34.34,0.0
62.0,-2.0,-13.0,18.98,0.447978,34.37,0.0
-30.0,57.0,10.0,12.9,1.890484,31.95,0.0
40.0,19.0,45.0,3.96,0.23815,34.03,0.0
55.0,-29.0,-6.0,20.35,7.083374,32.61,0.0
61.0,-2.0,-13.0,-19.51,0.449257,34.49,0.0
28.0,24.0,51.0,39.35,0.270188,33.29,0.0
41.0,13.0,-46.0,4.13,0.114305,35.91,0.0
62.0,-2.0,-13.0,-22.03,0.446698,34.37,0.0
42.0,20.0,43.0,-0.72,0.24966,34.0,0.0
20.0,-9.0,59.0,8.29,3.622014,32.57,0.0
19.0,60.0,6.0,-1.78,0.252264,33.61,0.0
38.0,-43.0,24.0,66.27,3.035352,33.99,0.0
56.0,-29.0,-7.0,-1.83,7.030924,32.65,0.0
44.0,-6.0,-32.0,-25.09,6.439201,33.21,0.0
60.0,-15.0,8.0,54.5,7.003513,34.71,0.0
-63.0,1.0,16.0,-42.04,0.18063,31.45,0.0
-20.0,-12.0,-60.0,31.38,0.125626,32.97,0.0
57.0,22.0,17.0,7.83,0.218093,33.65,0.0
62.0,0.0,12.0,11.71,0.151464,34.63,0.0
-19.0,-4.0,-61.0,-25.21,0.121788,33.05,0.0
20.0,14.0,59.0,-2.28,0.262497,34.13,0.0
56.0,23.0,17.0,-27.51,0.189904,33.68,0.0
56.0,21.0,17.0,-19.88,0.287285,33.65,0.0
-41.0,23.0,44.0,-29.93,3.030965,34.33,0.0
28.0,25.0,51.0,48.74,0.251,33.27,0.0
27.0,25.0,51.0,22.23,0.252279,33.27,0.0
-17.0,61.0,13.0,-99.4,2.108713,32.25,0.0
30.0,26.0,49.0,17.35,0.322618,33.33,0.0
40.0,20.0,44.0,-0.29,0.241987,34.0,0.0
27.0,26.0,51.0,34.38,0.245883,33.25,0.0
-31.0,56.0,10.0,1.94,3.211813,32.15,0.0
53.0,17.0,29.0,11.25,0.242438,35.75,0.0
-64.0,14.0,-4.0,2.95,0.443581,30.65,0.0
-62.0,19.0,-4.0,-4.08,2.319396,31.47,0.0
42.0,-43.0,13.0,6.22,3.405872,33.66,0.0
-61.0,19.0,-12.0,1.91,2.382079,31.61,0.0
-23.0,-12.0,-59.0,39.0,0.125626,32.97,0.0
-63.0,18.0,-2.0,5.01,2.320675,31.49,0.0
42.0,-43.0,14.0,16.07,3.572135,33.65,0.0
73.0,-37.0,8.0,75.22,6.807055,33.0,0.0
60.0,-4.0,18.0,6.36,1.207757,34.09,0.0
-32.0,10.0,35.0,19.1,2.330749,32.49,0.0
62.0,0.0,-11.0,9.45,0.189904,34.16,0.0
37.0,51.0,-7.0,-11.64,0.267614,33.55,0.0
36.0,9.0,51.0,37.41,0.253558,33.49,0.0
24.0,58.0,13.0,-23.41,0.237313,34.03,0.0
54.0,10.0,32.0,5.6,0.39809,31.15,0.0
47.0,6.0,-36.0,11.47,3.002641,33.81,0.0
-28.0,56.0,12.0,7.65,0.424362,32.61,0.0
20.0,7.0,59.0,-8.77,0.446698,31.59,0.0
62.0,21.0,-15.0,-88.5,0.224122,34.23,0.0
38.0,-43.0,24.0,180.24,3.036631,34.0,0.0
54.0,0.0,33.0,8.25,0.312329,34.03,0.0
39.0,13.0,48.0,38.3,0.213889,34.5,0.0
-23.0,58.0,18.0,-8.8,1.618858,31.93,0.0
-62.0,1.0,18.0,19.52,0.193422,31.41,0.0
-62.0,2.0,19.0,23.42,0.194701,31.41,0.0
54.0,6.0,32.0,17.44,0.257396,33.49,0.0
56.0,-17.0,23.0,1.92,4.740467,34.45,0.0
-48.0,-7.0,-45.0,15.05,0.110275,33.07,0.0
61.0,1.0,-20.0,-2.66,0.188623,34.15,0.0
42.0,-4.0,48.0,-19.83,6.187631,33.09,0.0
60.0,0.0,-25.0,-24.54,0.221937,34.27,0.0
-20.0,-13.0,-60.0,-16.04,0.125626,32.97,0.0
28.0,25.0,51.0,19.42,0.282964,33.27,0.0
61.0,-14.0,-5.0,-41.13,4.88758,33.95,0.0
-20.0,-11.0,-60.0,36.64,0.124346,32.97,0.0
57.0,23.0,17.0,-33.01,0.175809,34.15,0.0
29.0,28.0,50.0,-50.77,0.215168,34.39,0.0
54.0,-17.0,-7.0,47.69,2.938682,33.79,0.0
-31.0,56.0,9.0,2.89,2.853903,32.11,0.0
-55.0,-22.0,24.0,36.62,2.34626,34.41,0.0
-21.0,-11.0,-60.0,6.9,0.126905,32.99,0.0
-21.0,-12.0,-60.0,12.92,0.125626,33.0,0.0
58.0,-21.0,-12.0,16.24,2.20541,34.0,0.0
41.0,13.0,-46.0,-22.64,0.115587,35.93,0.0
41.0,-44.0,13.0,-106.84,3.483888,33.65,0.0
52.0,5.0,36.0,11.58,0.235592,33.97,0.0
52.0,10.0,34.0,-21.85,0.391694,31.03,0.0
-40.0,24.0,44.0,-58.22,3.074459,34.31,0.0
53.0,-12.0,-31.0,16.39,0.419836,34.11,0.0
56.0,17.0,24.0,-15.71,0.228344,35.77,0.0
56.0,27.0,7.0,-13.28,7.221533,32.93,0.0
-52.0,16.0,35.0,22.11,2.494653,34.39,0.0
-29.0,57.0,8.0,-19.79,1.802077,31.95,0.0
25.0,57.0,13.0,27.38,0.233469,34.03,0.0
-30.0,56.0,10.0,-8.99,2.299999,31.99,0.0
48.0,-33.0,23.0,-21.36,4.684179,33.5,0.0
-52.0,16.0,35.0,24.26,2.503608,34.39,0.0
61.0,2.0,0.0,66.81,7.060347,33.03,0.0
60.0,-12.0,13.0,-4.73,4.313737,33.84,0.0
54.0,6.0,32.0,-35.96,0.262513,33.49,0.0
28.0,-48.0,-29.0,20.52,0.236928,33.57,0.0
59.0,-20.0,-3.0,-9.76,4.758376,33.81,0.0
-18.0,-7.0,-62.0,70.85,0.129463,32.93,0.0
-21.0,-11.0,-60.0,36.8,0.124346,33.0,0.0
-22.0,-11.0,-60.0,-21.32,0.125626,32.97,0.0
38.0,21.0,46.0,-42.83,0.230518,34.25,0.0
61.0,-2.0,-13.0,3.2,0.453094,34.43,0.0
60.0,0.0,-16.0,-27.82,0.180935,34.39,0.0
61.0,0.0,12.0,-25.77,0.148901,34.61,0.0
41.0,-42.0,21.0,-15.8,2.435222,34.16,0.0
-52.0,-20.0,32.0,36.55,2.442204,34.43,0.0
60.0,-4.0,18.0,11.16,1.372741,33.73,0.0
44.0,-43.0,11.0,-55.47,3.537603,33.68,0.0
27.0,25.0,51.0,29.19,0.252279,33.29,0.0
62.0,-2.0,-13.0,-17.29,0.441582,34.29,0.0
38.0,21.0,46.0,-85.32,0.235635,34.27,0.0
56.0,24.0,24.0,5.82,0.305224,35.83,0.0
53.0,8.0,34.0,13.07,0.210013,33.97,0.0
60.0,-12.0,13.0,16.13,4.368745,34.45,0.0
-61.0,19.0,-12.0,0.6,2.403826,31.61,0.0
58.0,-22.0,-13.0,-9.27,2.00458,33.97,0.0
62.0,-2.0,-13.0,-27.91,0.437744,34.25,0.0
-54.0,-22.0,28.0,77.71,2.373124,34.43,0.0
13.0,-9.0,61.0,3.5,4.859548,32.71,0.0
55.0,30.0,-19.0,-5.52,6.95474,32.95,0.0
51.0,-14.0,35.0,10.47,6.054589,33.11,0.0
-57.0,-24.0,20.0,-4.39,2.878734,34.31,0.0
54.0,9.0,32.0,-0.81,0.38274,31.21,0.0
30.0,25.0,50.0,12.43,0.288081,33.29,0.0
-63.0,17.0,-8.0,2.77,2.515121,31.79,0.0
-52.0,-21.0,30.0,13.48,2.899202,34.33,0.0
54.0,26.0,20.0,20.57,0.447451,35.79,0.0
55.0,-18.0,24.0,9.1,4.771169,34.03,0.0
56.0,-25.0,-13.0,20.59,0.243324,33.61,0.0
30.0,39.0,39.0,49.5,0.715319,35.73,0.0
58.0,-10.0,-23.0,18.45,0.42879,34.05,0.0
20.0,8.0,59.0,16.39,0.395531,31.63,0.0
30.0,26.0,49.0,-2.32,0.311106,33.34,0.0
14.0,-9.0,60.0,-29.31,4.646504,32.68,0.0
55.0,24.0,23.0,-23.52,0.154027,35.89,0.0
-46.0,-26.0,34.0,-28.42,2.342422,34.43,0.0
-65.0,-1.0,4.0,17.22,0.185747,31.47,0.0
20.0,7.0,59.0,18.6,0.450536,31.59,0.0
57.0,16.0,22.0,-3.51,0.203999,35.79,0.0
61.0,-12.0,13.0,-10.17,4.364907,34.55,0.0
-15.0,62.0,9.0,51.7,1.981554,32.27,0.0
-60.0,-20.0,16.0,24.72,2.776394,34.31,0.0
60.0,-4.0,18.0,14.58,1.590161,34.05,0.0
52.0,2.0,36.0,21.24,0.386507,33.93,0.0
-62.0,19.0,-11.0,0.37,2.401268,31.63,0.0
62.0,11.0,1.0,35.88,8.012493,34.81,0.0
-28.0,57.0,10.0,6.4,3.822891,32.41,0.0
-17.0,-8.0,-62.0,-89.11,0.123067,33.07,0.0
20.0,-10.0,59.0,0.67,3.602829,32.63,0.0
43.0,17.0,44.0,-16.22,0.212609,34.49,0.0
-62.0,18.0,-11.0,2.25,2.373124,31.55,0.0
37.0,9.0,51.0,-1.98,0.253558,33.5,0.0
59.0,-5.0,21.0,2.86,0.992895,35.23,0.0
18.0,61.0,6.0,-11.16,0.217726,34.37,0.0
60.0,-11.0,13.0,-16.12,4.367465,34.57,0.0
37.0,-40.0,-32.0,-15.76,3.69875,33.84,0.0
20.0,8.0,59.0,-2.99,0.447978,31.59,0.0
-17.0,-7.0,-62.0,11.71,0.121788,33.07,0.0
-24.0,-11.0,-58.0,30.31,0.128184,32.93,0.0
60.0,-4.0,16.0,-98.58,1.623414,34.03,0.0
-23.0,-14.0,-70.0,-27.95,0.116671,33.0,0.0
53.0,-17.0,30.0,-10.69,5.228509,33.15,0.0
61.0,16.0,4.0,27.61,0.239472,34.13,0.0
55.0,-26.0,-2.0,-112.59,6.917071,33.0,0.0
59.0,-25.0,-4.0,142.21,6.435364,33.0,0.0
57.0,-27.0,0.0,-37.66,6.363726,33.11,0.0
-63.0,1.0,17.0,-39.95,0.181909,31.43,0.0
57.0,-27.0,1.0,3.02,6.601666,32.95,0.0
60.0,-4.0,18.0,4.82,1.184736,34.23,0.0
17.0,61.0,6.0,-25.17,0.254822,33.55,0.0
-29.0,57.0,9.0,0.55,2.798809,32.07,0.0
43.0,-43.0,12.0,46.12,3.666777,33.65,0.0
20.0,-9.0,59.0,11.13,3.55423,32.57,0.0
56.0,-29.0,-5.0,6.52,7.152453,32.61,0.0
27.0,-49.0,-28.0,-23.94,0.23309,33.57,0.0
53.0,10.0,33.0,-21.08,0.390415,31.07,0.0
58.0,19.0,16.0,-0.58,0.246282,35.75,0.0
57.0,25.0,6.0,28.84,0.116868,35.87,0.0
68.0,-2.0,27.0,-8.14,0.949312,33.81,0.0
37.0,24.0,51.0,68.07,0.22668,34.23,0.0
-62.0,19.0,-2.0,-4.45,2.351377,31.49,0.0
51.0,28.0,26.0,-43.08,0.111743,35.87,0.0
-7.0,0.0,63.0,-54.23,1.243326,35.81,0.0
27.0,25.0,51.0,32.74,0.248441,33.27,0.0
52.0,-18.0,30.0,13.91,5.399929,32.95,0.0
47.0,-34.0,23.0,11.65,4.771169,33.41,0.0
62.0,-2.0,-13.0,7.61,0.446698,34.33,0.0
-54.0,-22.0,28.0,8.92,2.374404,34.45,0.0
62.0,8.0,-8.0,17.28,1.086159,33.77,0.0
-28.0,57.0,10.0,4.44,1.670108,31.93,0.0
57.0,5.0,27.0,-49.45,0.261234,33.41,0.0
-13.0,62.0,10.0,-96.28,2.287797,32.21,0.0
55.0,-28.0,-4.0,-4.1,6.965683,32.87,0.0
-30.0,57.0,10.0,2.02,2.105249,31.95,0.0
28.0,24.0,51.0,-6.8,0.26763,33.29,0.0
-63.0,19.0,-4.0,-2.83,2.300207,31.45,0.0
-45.0,-10.0,-29.0,-28.05,4.08398,32.43,0.0
54.0,19.0,21.0,175.64,0.269346,35.79,0.0
61.0,-14.0,-3.0,-32.13,4.90549,33.87,0.0
-66.0,-2.0,-17.0,4.74,3.667859,32.45,0.0
60.0,-4.0,18.0,-2.33,1.316467,33.77,0.0
59.0,-22.0,-4.0,17.88,2.999709,33.71,0.0
27.0,18.0,54.0,-42.83,0.225401,34.23,0.0
13.0,-9.0,60.0,-17.05,4.739327,32.73,0.0
48.0,-38.0,10.0,-16.81,0.238207,33.57,0.0
-22.0,-5.0,-61.0,-24.38,0.120509,33.05,0.0
27.0,26.0,51.0,3.06,0.24972,33.27,0.0
52.0,-13.0,-33.0,-24.87,0.415998,34.15,0.0
60.0,-4.0,18.0,-15.47,1.362509,33.73,0.0
-54.0,19.0,31.0,-21.25,3.112837,34.27,0.0
32.0,-15.0,53.0,-6.99,8.043819,33.41,0.0
-34.0,57.0,4.0,3.24,3.145187,32.47,0.0
-63.0,14.0,-6.0,-0.99,0.453831,30.63,0.0
-65.0,0.0,5.0,-26.62,0.185747,31.47,0.0
-60.0,-20.0,16.0,42.62,2.784069,34.31,0.0
51.0,4.0,37.0,-12.59,0.224082,33.95,0.0
54.0,10.0,32.0,14.24,0.391694,31.05,0.0
28.0,25.0,51.0,55.99,0.253558,33.27,0.0
61.0,-2.0,-14.0,-30.53,0.455653,34.5,0.0
-62.0,18.0,-9.0,-6.97,2.471627,31.73,0.0
-54.0,-21.0,28.0,-75.26,2.344981,34.41,0.0
43.0,-43.0,14.0,-24.84,3.414825,33.65,0.0
40.0,13.0,48.0,-34.43,0.216447,34.5,0.0
-63.0,19.0,-1.0,2.36,2.318117,31.53,0.0
27.0,25.0,51.0,36.34,0.253558,33.27,0.0
57.0,23.0,17.0,-9.49,0.178372,33.95,0.0
29.0,4.0,56.0,5.34,0.379915,33.31,0.0
28.0,24.0,51.0,51.99,0.266351,33.27,0.0
-25.0,58.0,13.0,1.16,1.895609,31.93,0.0
-31.0,-7.0,-56.0,14.73,0.117951,33.05,0.0
63.0,0.0,-4.0,11.77,0.236032,34.37,0.0
53.0,-12.0,-31.0,18.38,0.423673,34.07,0.0
24.0,13.0,57.0,-9.78,0.964659,34.57,0.0
60.0,-4.0,18.0,-0.7,1.029984,35.03,0.0
54.0,1.0,33.0,10.24,0.312329,34.03,0.0
53.0,-18.0,30.0,4.42,5.273283,33.16,0.0
6.0,-58.0,22.0,-3.93,2.511284,31.71,0.0
40.0,13.0,-47.0,0.26,0.110461,35.95,0.0
-27.0,57.0,10.0,-2.19,1.664983,31.95,0.0
38.0,-39.0,-32.0,-35.08,3.720492,33.84,0.0
56.0,25.0,17.0,10.08,0.105336,35.91,0.0
61.0,4.0,16.0,26.03,0.385229,33.87,0.0
56.0,-11.0,26.0,-5.41,4.677783,34.37,0.0
13.0,-8.0,61.0,14.25,5.055873,32.73,0.0
-61.0,-6.0,-4.0,-26.46,1.67119,32.57,0.0
60.0,-1.0,21.0,8.93,0.351976,34.05,0.0
-53.0,-24.0,24.0,-10.84,0.183188,31.47,0.0
-62.0,2.0,19.0,-37.38,0.192143,31.43,0.0
-63.0,18.0,-2.0,-1.93,2.327071,31.53,0.0
53.0,1.0,34.0,13.3,0.307213,34.03,0.0
52.0,6.0,36.0,-14.24,0.235592,33.97,0.0
-57.0,-21.0,26.0,-99.4,2.736737,34.37,0.0
31.0,26.0,49.0,-14.62,0.30471,33.33,0.0
-61.0,4.0,-15.0,-9.88,0.442299,32.63,0.0
61.0,-2.0,-14.0,-3.87,0.455653,34.53,0.0
57.0,23.0,17.0,16.75,0.191185,33.71,0.0
48.0,35.0,18.0,47.6,0.863953,35.71,0.0
55.0,-28.0,-4.0,23.57,7.158849,32.57,0.0
56.0,-28.0,-5.0,-55.89,7.184434,32.55,0.0
59.0,-4.0,21.0,4.37,0.995453,35.21,0.0
28.0,25.0,51.0,-31.26,0.262513,33.29,0.0
57.0,22.0,17.0,12.28,0.261658,33.66,0.0
61.0,-1.0,-16.0,-11.96,0.179653,34.16,0.0
56.0,-27.0,-2.0,-42.58,6.362446,33.09,0.0
-27.0,-12.0,-59.0,-21.34,0.128184,32.93,0.0
62.0,-2.0,-13.0,1.0,0.450536,34.41,0.0
30.0,27.0,49.0,15.57,0.307268,33.34,0.0
56.0,-18.0,24.0,8.18,4.775006,33.93,0.0
67.0,-5.0,-8.0,-25.12,5.60205,33.0,0.0
-49.0,2.0,42.0,-62.12,0.169117,32.84,0.0
-55.0,-7.0,-36.0,17.13,0.108996,33.07,0.0
43.0,19.0,42.0,19.72,0.252218,33.99,0.0
20.0,8.0,59.0,20.2,0.390415,31.65,0.0
27.0,25.0,51.0,-38.83,0.247162,33.25,0.0
20.0,7.0,59.0,21.8,0.415998,31.61,0.0
27.0,25.0,51.0,-76.82,0.248441,33.27,0.0
57.0,22.0,17.0,9.89,0.256533,33.66,0.0
57.0,23.0,17.0,22.43,0.183497,33.79,0.0
54.0,26.0,20.0,17.57,0.483329,35.77,0.0
64.0,0.0,-3.0,-81.69,0.161715,34.41,0.0
41.0,13.0,-46.0,10.57,0.114305,35.93,0.0
37.0,21.0,46.0,-36.5,0.22796,34.25,0.0
-33.0,59.0,11.0,16.32,0.424362,32.61,0.0
53.0,10.0,32.0,-11.28,0.392973,31.03,0.0
62.0,-2.0,-12.0,2.67,0.446698,34.23,0.0
62.0,-2.0,-13.0,21.43,0.445419,34.25,0.0
58.0,-2.0,24.0,-8.45,0.215129,34.16,0.0
42.0,-42.0,21.0,172.58,2.51068,34.18,0.0
-64.0,2.0,30.0,30.39,0.188305,31.37,0.0
-29.0,56.0,9.0,4.48,4.470348,32.43,0.0
-62.0,2.0,19.0,-25.5,0.197259,31.39,0.0
60.0,0.0,-20.0,2.49,0.171965,34.15,0.0
54.0,11.0,31.0,7.72,0.394252,31.21,0.0
62.0,-2.0,-12.0,-8.54,0.450536,34.29,0.0
53.0,-17.0,29.0,7.35,5.298868,33.05,0.0
57.0,23.0,16.0,-28.63,0.203999,33.65,0.0
-49.0,-12.0,-41.0,34.68,2.403826,34.37,0.0
20.0,8.0,59.0,-32.57,0.389135,31.67,0.0
-29.0,57.0,11.0,1.76,1.910984,31.95,0.0
52.0,9.0,34.0,-55.13,0.389135,31.09,0.0
61.0,-12.0,13.0,-1.74,4.345718,33.99,0.0
48.0,-32.0,23.0,-10.69,4.576722,33.73,0.0
62.0,-2.0,-13.0,-1.14,0.455653,34.29,0.0
-31.0,56.0,10.0,4.81,2.618153,32.07,0.0
-32.0,55.0,9.0,0.76,4.551067,32.34,0.0
25.0,57.0,14.0,-36.31,0.250126,34.03,0.0
20.0,7.0,59.0,-35.63,0.464607,31.59,0.0
61.0,26.0,14.0,183.6,0.818859,34.07,0.0
55.0,6.0,31.0,23.24,0.259954,33.49,0.0
28.0,55.0,-17.0,-32.81,0.250126,34.11,0.0
20.0,-10.0,59.0,-76.05,3.673172,32.63,0.0
63.0,0.0,-9.0,-9.23,0.242438,34.23,0.0
50.0,10.0,37.0,43.97,0.390415,31.09,0.0
61.0,-2.0,-14.0,17.82,0.456932,34.53,0.0
55.0,9.0,30.0,11.77,0.234313,33.97,0.0
-34.0,-6.0,-54.0,-11.18,0.11923,33.11,0.0
53.0,10.0,34.0,1.63,0.39809,31.09,0.0
-50.0,-13.0,-40.0,-64.22,2.454997,34.39,0.0
63.0,0.0,-5.0,-6.03,0.219374,34.41,0.0
63.0,-4.0,-11.0,8.4,4.58056,34.31,0.0
-52.0,-20.0,32.0,-52.13,2.452438,34.41,0.0
38.0,-17.0,47.0,6.44,8.325187,33.41,0.0
57.0,-31.0,-3.0,32.27,6.380356,33.18,0.0
55.0,-30.0,-4.0,3.94,7.174201,32.61,0.0
30.0,14.0,54.0,24.83,0.251,33.53,0.0
18.0,61.0,6.0,12.3,0.249705,33.68,0.0
57.0,-11.0,25.0,-11.66,4.690576,34.25,0.0
5.0,-60.0,19.0,-27.96,0.234369,33.53,0.0
19.0,23.0,57.0,19.54,0.295756,33.31,0.0
56.0,23.0,17.0,35.11,0.180935,33.95,0.0
37.0,-39.0,-33.0,-39.12,3.513304,33.84,0.0
-54.0,-22.0,27.0,49.59,2.375683,34.43,0.0
26.0,18.0,42.0,-26.77,0.368009,35.89,0.0
57.0,-10.0,25.0,-11.18,4.681621,34.29,0.0
35.0,-19.0,-14.0,-68.54,6.439201,33.15,0.0
-52.0,-20.0,32.0,-29.29,2.43197,34.39,0.0
57.0,5.0,27.0,-3.21,0.259954,33.45,0.0
42.0,13.0,-45.0,-42.86,0.115587,35.84,0.0
53.0,7.0,32.0,-32.39,6.358609,34.83,0.0
51.0,7.0,36.0,-5.27,0.234313,33.97,0.0
-30.0,55.0,12.0,39.65,0.529425,32.59,0.0
56.0,-30.0,-3.0,-30.37,6.278016,33.0,0.0
-30.0,57.0,10.0,0.89,1.930998,31.97,0.0
76.0,-19.0,-5.0,-118.13,6.379076,33.11,0.0
13.0,-8.0,61.0,-8.17,4.833969,32.75,0.0
57.0,-24.0,-11.0,-43.89,7.79502,34.66,0.0
63.0,0.0,-5.0,14.76,0.189904,34.33,0.0
57.0,-21.0,-16.0,-26.34,2.216923,34.07,0.0
57.0,-22.0,-17.0,-0.6,2.196456,33.97,0.0
43.0,38.0,15.0,-3.65,1.128364,33.77,0.0
-62.0,-19.0,4.0,-51.41,2.658703,34.37,0.0
49.0,30.0,22.0,-32.25,0.696099,35.75,0.0
31.0,11.0,54.0,33.0,0.893038,34.23,0.0
59.0,-25.0,-2.0,15.86,7.935738,34.66,0.0
42.0,19.0,43.0,-23.48,0.250939,34.0,0.0
57.0,23.0,17.0,17.88,0.201436,33.66,0.0
38.0,-42.0,25.0,73.32,2.605322,34.23,0.0
-19.0,-11.0,-60.0,-18.79,0.126905,33.0,0.0
57.0,-13.0,-22.0,-76.18,0.414719,34.25,0.0
-52.0,16.0,35.0,8.08,2.495933,34.39,0.0
-17.0,-7.0,-62.0,-6.9,0.120509,33.09,0.0
-65.0,-1.0,8.0,-6.5,0.193422,31.47,0.0
-17.0,-7.0,-62.0,44.04,0.11923,33.07,0.0
56.0,23.0,16.0,-18.61,0.344945,35.87,0.0
27.0,25.0,51.0,-42.97,0.248441,33.27,0.0
57.0,6.0,27.0,22.27,0.262513,33.39,0.0
56.0,23.0,17.0,5.77,0.184779,33.73,0.0
-53.0,-20.0,31.0,-15.74,2.476744,34.43,0.0
62.0,-2.0,-13.0,17.47,0.446698,34.29,0.0
47.0,-38.0,-17.0,12.48,0.235649,33.57,0.0
54.0,26.0,21.0,-1.75,0.095085,35.91,0.0
-25.0,54.0,7.0,10.78,4.147048,32.41,0.0
36.0,9.0,51.0,-25.72,0.253558,33.49,0.0
29.0,27.0,48.0,54.15,0.233076,34.27,0.0
-63.0,18.0,-2.0,4.58,2.359053,31.53,0.0
58.0,-21.0,-1.0,32.53,3.139512,33.81,0.0
32.0,29.0,47.0,27.32,0.213889,34.47,0.0
51.0,11.0,-36.0,-14.37,0.861065,34.13,0.0
64.0,-17.0,-2.0,5.38,5.682643,33.0,0.0
55.0,-30.0,-6.0,39.82,7.048834,32.68,0.0
57.0,22.0,17.0,-36.42,0.251408,33.61,0.0
57.0,-2.0,-25.0,168.23,2.881119,33.81,0.0
-48.0,5.0,-33.0,25.8,4.144198,32.37,0.0
17.0,61.0,6.0,9.42,0.244589,33.93,0.0
53.0,10.0,33.0,-4.49,0.392973,31.05,0.0
-63.0,15.0,-5.0,7.41,0.442299,30.65,0.0
53.0,25.0,21.0,18.3,0.799675,33.73,0.0
-64.0,13.0,-5.0,-14.3,0.449987,30.65,0.0
-61.0,58.0,4.0,2.05,4.213674,32.34,0.0
-46.0,-13.0,42.0,95.65,2.800699,34.33,0.0
62.0,-2.0,-13.0,-28.23,0.441582,34.23,0.0
55.0,24.0,19.0,-104.5,0.468022,35.79,0.0
57.0,23.0,16.0,16.92,0.20528,33.65,0.0
60.0,-4.0,18.0,-19.74,1.040216,34.91,0.0
-20.0,-7.0,-61.0,21.35,0.120509,33.07,0.0
78.0,-30.0,34.0,8.06,8.241479,34.79,0.0
62.0,-2.0,-12.0,12.01,0.449257,34.27,0.0
-64.0,14.0,-5.0,-0.7,0.441018,30.67,0.0
60.0,-15.0,9.0,-22.59,6.993279,34.71,0.0
-64.0,14.0,-5.0,4.8,0.442299,30.63,0.0
41.0,13.0,-47.0,-171.99,0.10918,35.91,0.0
45.0,-1.0,44.0,19.47,0.211292,34.13,0.0
-52.0,14.0,-11.0,-2.86,0.434612,32.61,0.0
20.0,-9.0,59.0,10.98,3.63864,32.59,0.0
-11.0,8.0,-61.0,-2.08,3.061667,33.79,0.0
50.0,20.0,33.0,-28.5,0.299593,33.31,0.0
-18.0,-6.0,-61.0,-1.03,0.11923,33.07,0.0
13.0,-8.0,61.0,5.09,5.094242,32.75,0.0
-23.0,61.0,10.0,4.21,2.241747,32.18,0.0
-44.0,-8.0,-46.0,34.52,0.110275,33.05,0.0
-62.0,2.0,19.0,11.2,0.198538,31.41,0.0
57.0,10.0,28.0,-8.26,0.218966,33.95,0.0
-22.0,-13.0,-59.0,-35.2,0.124346,32.97,0.0
60.0,-5.0,20.0,-31.27,1.672014,34.03,0.0
35.0,11.0,52.0,-11.41,0.245883,33.53,0.0
53.0,10.0,33.0,4.57,0.39809,31.07,0.0
-48.0,-17.0,39.0,41.62,2.762322,34.37,0.0
28.0,-32.0,46.0,-41.93,6.698889,34.75,0.0
34.0,11.0,51.0,61.55,0.238207,33.53,0.0
-50.0,-23.0,34.0,3.22,3.171682,34.23,0.0
62.0,8.0,-10.0,-1.45,0.973612,34.13,0.0
44.0,20.0,41.0,11.81,0.235635,34.27,0.0
53.0,5.0,33.0,65.14,0.256117,33.47,0.0
-64.0,13.0,-5.0,-3.18,0.443581,30.63,0.0
43.0,22.0,41.0,-13.71,0.236914,34.25,0.0
43.0,14.0,-44.0,-21.26,0.115587,35.84,0.0
22.0,-51.0,29.0,-26.33,2.572688,31.71,0.0
14.0,62.0,4.0,-17.11,0.217726,34.33,0.0
-35.0,-5.0,-54.0,27.98,0.114113,33.11,0.0
25.0,-35.0,45.0,-0.27,8.149373,34.77,0.0
36.0,9.0,51.0,3.4,0.24972,33.5,0.0
61.0,-2.0,-13.0,-27.58,0.449257,34.39,0.0
57.0,18.0,19.0,-23.04,0.248845,35.75,0.0
5.0,-60.0,19.0,-13.6,0.234369,33.53,0.0
59.0,-11.0,19.0,6.45,4.711044,34.53,0.0
57.0,17.0,23.0,16.05,0.212968,35.77,0.0
60.0,-11.0,13.0,-30.76,4.630451,34.0,0.0
59.0,-5.0,21.0,0.71,1.008242,35.16,0.0
41.0,50.0,-7.0,10.63,0.268893,33.53,0.0
63.0,-9.0,9.0,1.78,4.71744,34.27,0.0
54.0,-24.0,-17.0,-28.19,7.731058,34.66,0.0
57.0,16.0,22.0,-11.7,0.202717,35.79,0.0
61.0,-12.0,12.0,-21.12,4.352115,33.95,0.0
21.0,7.0,59.0,11.97,0.462048,31.61,0.0
62.0,12.0,-4.0,-0.9,8.155769,34.79,0.0
6.0,-58.0,20.0,-48.81,2.506166,31.73,0.0
-49.0,-22.0,37.0,33.7,2.549661,34.37,0.0
63.0,0.0,-7.0,32.84,0.192467,34.18,0.0
63.0,8.0,8.0,-45.96,0.390344,33.84,0.0
54.0,10.0,32.0,6.58,0.394252,31.11,0.0
62.0,-2.0,-13.0,-22.4,0.445419,34.25,0.0
60.0,-4.0,18.0,7.36,1.39832,33.73,0.0
-35.0,-32.0,41.0,-66.94,2.720107,34.37,0.0
35.0,19.0,49.0,-20.4,0.229239,34.25,0.0
61.0,-15.0,9.0,3.16,4.529931,30.15,0.0
-36.0,-7.0,-53.0,16.86,0.117951,33.07,0.0
-63.0,-13.0,-19.0,7.03,3.701172,32.45,0.0
-64.0,14.0,-6.0,-6.17,0.45255,30.63,0.0
-52.0,-19.0,33.0,48.79,2.716269,34.37,0.0
33.0,10.0,52.0,100.49,0.244603,33.55,0.0
36.0,-42.0,-30.0,-17.08,3.436567,33.77,0.0
57.0,-28.0,-6.0,-47.12,6.180793,33.18,0.0
27.0,25.0,51.0,3.7,0.259954,33.29,0.0
44.0,-42.0,12.0,173.72,3.611782,33.71,0.0
-17.0,-8.0,-61.0,-78.1,0.121788,33.05,0.0
-60.0,-24.0,-30.0,68.11,0.105159,33.11,0.0
56.0,19.0,23.0,11.8,0.195029,35.81,0.0
61.0,-15.0,9.0,-7.65,4.536327,30.17,0.0
56.0,-23.0,0.0,31.57,7.65814,34.71,0.0
62.0,-2.0,-13.0,7.97,0.445419,34.31,0.0
57.0,-22.0,-15.0,-34.0,2.232273,34.05,0.0
26.0,26.0,51.0,44.72,0.244603,33.25,0.0
54.0,-1.0,-10.0,6.44,4.782682,34.45,0.0
51.0,-13.0,-34.0,14.84,0.412161,34.18,0.0
59.0,-10.0,18.0,30.21,8.874649,33.21,0.0
52.0,11.0,35.0,-7.44,0.392973,31.03,0.0
35.0,11.0,51.0,-21.67,0.243324,33.55,0.0
60.0,-4.0,18.0,4.46,1.242289,33.93,0.0
62.0,-2.0,-13.0,-5.05,0.447978,34.29,0.0
55.0,6.0,31.0,-38.15,0.258675,33.47,0.0
57.0,-28.0,1.0,28.89,6.918921,33.11,0.0
52.0,-31.0,19.0,9.33,4.590794,33.65,0.0
64.0,15.0,-15.0,-26.66,8.261947,34.77,0.0
58.0,25.0,5.0,-21.98,0.118149,35.87,0.0
62.0,0.0,-14.0,-0.89,0.18606,34.18,0.0
43.0,19.0,42.0,20.95,0.268845,34.0,0.0
53.0,-17.0,30.0,-0.89,5.303985,33.05,0.0
62.0,-2.0,-13.0,21.57,0.449257,34.43,0.0
-31.0,56.0,9.0,5.24,2.592528,32.5,0.0
42.0,37.0,-26.0,37.45,7.867938,34.73,0.0
27.0,25.0,51.0,31.29,0.24972,33.27,0.0
-30.0,57.0,10.0,-13.04,2.278218,31.99,0.0
53.0,22.0,24.0,22.66,0.297536,35.83,0.0
-54.0,-22.0,28.0,20.71,2.352656,34.39,0.0
6.0,-53.0,32.0,7.29,2.51768,31.73,0.0
54.0,-31.0,-10.0,58.9,6.162883,33.15,0.0
-30.0,56.0,8.0,4.16,1.618858,31.91,0.0
-30.0,56.0,10.0,4.87,1.50867,31.87,0.0
32.0,32.0,44.0,1.21,0.277847,33.41,0.0
20.0,8.0,59.0,18.76,0.392973,31.63,0.0
44.0,-43.0,12.0,123.7,3.622014,33.77,0.0
-73.0,2.0,-12.0,48.71,3.064225,33.71,0.0
62.0,-2.0,-13.0,16.64,0.44414,34.23,0.0
54.0,11.0,31.0,3.13,0.391694,31.23,0.0
36.0,23.0,48.0,88.12,0.217726,34.41,0.0
45.0,22.0,43.0,22.41,0.114305,35.87,0.0
59.0,-4.0,21.0,-12.82,1.009521,35.16,0.0
62.0,0.0,12.0,-1.9,0.155308,34.63,0.0
-42.0,22.0,43.0,35.0,3.041199,34.33,0.0
30.0,14.0,54.0,-47.48,0.248441,33.5,0.0
13.0,62.0,5.0,135.91,0.222843,34.37,0.0
-29.0,56.0,10.0,5.62,4.72788,32.27,0.0
-32.0,55.0,11.0,0.48,3.744735,32.15,0.0
41.0,13.0,-47.0,0.97,0.114305,35.93,0.0
26.0,17.0,55.0,16.18,0.986401,34.49,0.0
-21.0,-11.0,-61.0,-2.51,0.126905,32.99,0.0
51.0,-19.0,31.0,2.49,5.828161,33.03,0.0
30.0,-46.0,-29.0,-19.8,0.231811,33.55,0.0
57.0,-14.0,22.0,-20.25,5.408883,32.99,0.0
-20.0,-11.0,-60.0,-85.45,0.121788,33.05,0.0
-45.0,-12.0,43.0,20.65,2.769997,34.33,0.0
62.0,0.0,12.0,24.35,0.164277,34.57,0.0
56.0,-22.0,-17.0,-22.78,2.078772,33.95,0.0
-37.0,-28.0,41.0,-24.6,2.736737,34.39,0.0
-22.0,-13.0,-59.0,47.85,0.126905,32.97,0.0
52.0,1.0,36.0,16.4,0.303376,34.0,0.0
-32.0,57.0,8.0,-4.69,2.97306,32.53,0.0
52.0,-19.0,31.0,-10.29,5.783388,33.03,0.0
38.0,-43.0,26.0,91.45,2.734495,34.09,0.0
54.0,25.0,21.0,-106.61,0.340527,33.34,0.0
60.0,8.0,17.0,-100.36,0.221524,34.05,0.0
63.0,0.0,-7.0,-10.39,7.730827,33.37,0.0
-31.0,55.0,9.0,6.26,3.985323,32.18,0.0
60.0,-4.0,18.0,6.69,1.021031,35.05,0.0
-66.0,-11.0,-23.0,-39.56,3.068063,33.68,0.0
57.0,23.0,17.0,-12.98,0.18606,33.73,0.0
59.0,-5.0,21.0,12.94,0.996732,35.21,0.0
60.0,-4.0,18.0,-2.5,1.114394,34.63,0.0
20.0,7.0,59.0,5.9,0.482515,31.59,0.0
-62.0,2.0,19.0,14.33,0.197259,31.43,0.0
28.0,25.0,51.0,-52.98,0.261234,33.27,0.0
62.0,-11.0,8.0,-25.36,4.621496,34.16,0.0
60.0,-12.0,13.0,11.38,4.363628,34.55,0.0
-17.0,-8.0,-62.0,26.93,0.120509,33.03,0.0
20.0,7.0,59.0,30.72,0.437744,31.59,0.0
58.0,-22.0,-14.0,-3.56,2.005859,33.95,0.0
55.0,25.0,20.0,-26.73,0.460265,35.81,0.0
58.0,-11.0,22.0,-1.62,4.713602,34.21,0.0
50.0,19.0,34.0,15.11,0.302152,33.29,0.0
-62.0,1.0,18.0,-18.08,0.188305,31.39,0.0
-65.0,0.0,5.0,19.43,0.187026,31.49,0.0
39.0,19.0,46.0,22.92,0.234313,34.0,0.0
57.0,23.0,17.0,12.53,0.209124,33.66,0.0
59.0,-2.0,24.0,-15.54,0.211292,34.15,0.0
36.0,9.0,50.0,-12.36,0.252279,33.49,0.0
31.0,17.0,61.0,-33.85,0.24972,33.53,0.0
57.0,2.0,-36.0,-46.52,6.752618,33.11,0.0
60.0,-4.0,18.0,3.3,1.188573,34.16,0.0
-64.0,14.0,-4.0,7.45,0.442299,30.61,0.0
42.0,14.0,-44.0,-11.95,0.116868,35.83,0.0
59.0,-20.0,-4.0,-4.6,2.928448,33.83,0.0
32.0,21.0,49.0,19.92,0.235635,34.15,0.0
38.0,13.0,48.0,-8.11,0.216447,34.49,0.0
56.0,-29.0,-4.0,52.41,7.116634,32.59,0.0
60.0,-4.0,18.0,13.27,1.358673,33.73,0.0
-31.0,56.0,10.0,4.41,2.61559,32.07,0.0
41.0,20.0,44.0,5.78,0.234355,34.27,0.0
63.0,0.0,-4.0,-2.17,0.207842,34.37,0.0
29.0,26.0,50.0,5.93,0.28936,33.33,0.0
37.0,-39.0,-33.0,7.02,3.573414,33.87,0.0
60.0,-4.0,18.0,3.86,1.042773,34.87,0.0
-29.0,57.0,9.0,-0.54,1.767483,31.93,0.0
48.0,-3.0,37.0,-28.39,0.380113,33.95,0.0
30.0,14.0,53.0,-56.5,0.251,33.53,0.0
57.0,23.0,17.0,20.67,0.180935,33.87,0.0
-70.0,-23.0,29.0,-102.77,2.78279,34.37,0.0
54.0,9.0,32.0,8.24,0.373785,31.21,0.0
57.0,6.0,27.0,-51.82,0.262513,33.41,0.0
56.0,-29.0,-4.0,41.49,6.744372,32.84,0.0
60.0,-4.0,18.0,-3.75,1.32542,33.77,0.0
57.0,23.0,17.0,-11.99,0.219374,33.63,0.0
-54.0,-21.0,28.0,30.13,2.341143,34.43,0.0
-28.0,56.0,11.0,-7.19,2.070655,31.97,0.0
-62.0,19.0,-10.0,6.34,2.375683,31.59,0.0
-65.0,0.0,5.0,-30.75,0.189584,31.49,0.0
20.0,7.0,59.0,4.37,0.487632,31.61,0.0
56.0,-28.0,-6.0,-23.0,6.800659,32.71,0.0
61.0,-15.0,8.0,-7.74,4.54784,30.17,0.0
27.0,25.0,52.0,-10.49,0.213889,34.45,0.0
-25.0,-11.0,-59.0,32.48,0.128184,32.95,0.0
-18.0,-7.0,-61.0,0.71,0.120509,33.07,0.0
-20.0,-4.0,-61.0,25.34,0.121788,33.07,0.0
-21.0,-11.0,-59.0,45.06,0.126905,32.99,0.0
44.0,-41.0,-12.0,58.67,0.231811,33.57,0.0
-53.0,-20.0,31.0,22.54,2.475465,34.41,0.0
62.0,8.0,-10.0,35.89,1.013259,33.95,0.0
62.0,0.0,12.0,-8.36,0.146339,34.65,0.0
-36.0,-14.0,-52.0,56.15,0.137138,32.91,0.0
60.0,9.0,21.0,-5.66,0.235592,33.99,0.0
56.0,-19.0,-18.0,7.65,1.995625,33.97,0.0
53.0,8.0,35.0,2.31,0.382671,33.84,0.0
27.0,-1.0,57.0,3.11,0.386311,33.29,0.0
57.0,22.0,17.0,19.31,0.261658,33.65,0.0
-65.0,-1.0,5.0,16.03,0.185747,31.47,0.0
54.0,26.0,21.0,-19.86,0.096367,35.91,0.0
60.0,-11.0,13.0,10.92,4.361069,34.41,0.0
56.0,-28.0,-8.0,11.43,6.564568,33.07,0.0
60.0,-13.0,-12.0,53.84,6.671454,34.71,0.0
55.0,-24.0,-13.0,11.84,6.455832,33.13,0.0
35.0,10.0,52.0,11.97,0.243324,33.53,0.0
20.0,7.0,59.0,16.34,0.442861,31.57,0.0
20.0,7.0,59.0,18.44,0.485074,31.61,0.0
-32.0,-6.0,-56.0,47.58,0.116671,33.09,0.0
-35.0,-5.0,-54.0,-1.21,0.111555,33.11,0.0
52.0,6.0,36.0,6.9,0.221524,33.93,0.0
30.0,11.0,55.0,-36.12,0.901991,34.31,0.0
29.0,28.0,49.0,-1.31,0.27401,33.49,0.0
39.0,21.0,45.0,-43.1,0.236914,34.27,0.0
54.0,10.0,32.0,-10.97,0.394252,31.19,0.0
58.0,25.0,6.0,9.89,0.116868,35.89,0.0
60.0,-15.0,9.0,0.43,4.56575,30.17,0.0
53.0,10.0,33.0,15.74,0.391694,31.05,0.0
53.0,-17.0,30.0,5.01,5.274562,33.15,0.0
63.0,-14.0,2.0,36.24,6.747501,34.73,0.0
-61.0,-12.0,-31.0,-34.29,3.946885,32.43,0.0
-55.0,-10.0,-30.0,-15.1,5.143957,32.34,0.0
-50.0,41.0,0.0,8.95,3.632064,32.5,0.0
60.0,-15.0,9.0,0.44,4.538886,30.21,0.0
60.0,0.0,-19.0,3.95,0.16684,34.11,0.0
61.0,-14.0,9.0,-11.7,4.523534,30.17,0.0
53.0,20.0,24.0,21.1,0.138651,35.89,0.0
57.0,-11.0,-24.0,-11.88,0.426232,34.05,0.0
61.0,-2.0,-14.0,11.52,0.455653,34.5,0.0
-63.0,19.0,-2.0,-4.21,2.341143,31.53,0.0
20.0,7.0,59.0,19.85,0.483794,31.61,0.0
60.0,-4.0,18.0,-13.14,1.036379,34.95,0.0
-33.0,-21.0,49.0,-98.14,2.973398,34.31,0.0
28.0,16.0,54.0,-52.26,8.196705,34.79,0.0
-2.0,-25.0,68.0,6.29,2.543265,31.73,0.0
48.0,29.0,28.0,-16.79,0.123275,35.89,0.0
52.0,-13.0,-34.0,-17.5,0.414719,34.18,0.0
20.0,7.0,59.0,-31.39,0.453094,31.59,0.0
55.0,-30.0,-6.0,-9.62,6.911954,32.83,0.0
54.0,10.0,32.0,8.76,0.390415,31.03,0.0
-59.0,-19.0,20.0,11.15,2.862103,34.31,0.0
14.0,-59.0,16.0,-7.73,0.183188,31.45,0.0
-50.0,-12.0,-40.0,5.87,2.472906,34.39,0.0
60.0,-4.0,18.0,-16.36,1.040216,34.95,0.0
53.0,16.0,30.0,-7.31,0.843452,35.68,0.0
-56.0,-7.0,-34.0,-7.51,0.107717,33.07,0.0
18.0,61.0,6.0,32.72,0.220284,34.33,0.0
-61.0,24.0,3.0,-0.8,2.681424,31.83,0.0
60.0,-17.0,-1.0,-41.09,6.960566,34.73,0.0
-63.0,2.0,14.0,-30.51,0.181909,31.43,0.0
-21.0,-10.0,-59.0,4.09,0.126905,32.95,0.0
61.0,-14.0,-6.0,0.7,4.88758,33.95,0.0
20.0,8.0,59.0,10.69,0.410881,31.61,0.0
59.0,-22.0,-4.0,12.86,3.047038,33.73,0.0
62.0,-2.0,-13.0,0.62,0.451815,34.39,0.0
31.0,-45.0,-31.0,22.23,0.23309,33.55,0.0
62.0,-2.0,-13.0,24.09,0.442861,34.29,0.0
20.0,8.0,59.0,19.38,0.392973,31.63,0.0
-18.0,62.0,9.0,173.66,1.976958,32.23,0.0
57.0,5.0,26.0,-29.4,0.262513,33.39,0.0
28.0,57.0,3.0,-134.48,0.268065,34.09,0.0
17.0,-59.0,14.0,5.05,0.188305,31.45,0.0
60.0,-14.0,8.0,-5.1,4.51458,30.17,0.0
35.0,10.0,51.0,53.57,0.242045,33.53,0.0
-27.0,56.0,9.0,4.23,1.621421,31.93,0.0
59.0,-21.0,-4.0,-8.32,4.948985,33.89,0.0
51.0,-26.0,-16.0,-21.0,2.049351,33.95,0.0
47.0,-34.0,23.0,3.75,4.783961,33.41,0.0
-64.0,14.0,-6.0,4.61,0.453831,30.61,0.0
-63.0,18.0,7.0,4.23,2.558616,31.85,0.0
53.0,25.0,21.0,2.02,0.833201,35.71,0.0
60.0,-4.0,18.0,-1.56,1.460988,33.75,0.0
55.0,-27.0,-6.0,-11.55,6.487813,33.07,0.0
-62.0,17.0,-9.0,-3.68,2.439646,31.65,0.0
57.0,5.0,27.0,-31.87,0.259954,33.43,0.0
54.0,10.0,32.0,-7.87,0.385298,31.23,0.0
57.0,-12.0,24.0,13.22,4.721278,34.23,0.0
37.0,26.0,44.0,-15.47,0.33541,33.37,0.0
55.0,16.0,25.0,-26.7,0.2245,35.77,0.0
56.0,-27.0,0.0,14.48,6.335582,33.11,0.0
35.0,18.0,49.0,-30.36,0.229239,34.25,0.0
-65.0,-1.0,4.0,22.48,0.192143,31.49,0.0
39.0,16.0,48.0,14.95,0.245868,34.15,0.0
-20.0,-6.0,-61.0,24.82,0.120509,33.09,0.0
20.0,8.0,60.0,17.37,0.389135,31.65,0.0
27.0,25.0,51.0,24.33,0.257396,33.29,0.0
20.0,-9.0,58.0,-12.58,3.49284,32.53,0.0
-54.0,19.0,30.0,32.47,3.130746,34.29,0.0
57.0,6.0,27.0,14.06,0.262513,33.43,0.0
-64.0,14.0,-4.0,1.22,0.441018,30.63,0.0
-41.0,20.0,0.0,-1.81,4.394043,32.41,0.0
33.0,-42.0,-38.0,19.58,0.230532,33.57,0.0
53.0,10.0,33.0,-8.72,0.394252,31.01,0.0
59.0,-5.0,21.0,2.21,1.000568,35.18,0.0
62.0,-2.0,-13.0,-7.41,0.450536,34.45,0.0
56.0,-28.0,-5.0,46.5,7.101283,32.66,0.0
35.0,10.0,51.0,-50.75,0.243324,33.53,0.0
-32.0,55.0,11.0,14.0,3.902329,32.43,0.0
-35.0,-6.0,-55.0,36.09,0.115392,33.11,0.0
57.0,21.0,17.0,-22.39,1.018375,33.83,0.0
56.0,-29.0,-2.0,22.76,7.22537,32.57,0.0
29.0,24.0,51.0,74.85,0.270188,33.29,0.0
-65.0,0.0,8.0,16.65,0.19598,31.45,0.0
38.0,-43.0,24.0,-38.1,3.067325,34.03,0.0
52.0,-13.0,-34.0,-6.39,0.414719,34.18,0.0
60.0,-4.0,18.0,20.32,1.123347,34.57,0.0
56.0,-28.0,-7.0,130.1,6.434084,33.13,0.0
66.0,13.0,18.0,-23.07,0.220245,34.03,0.0
-47.0,-24.0,35.0,26.85,2.369287,34.41,0.0
60.0,-4.0,18.0,-5.97,1.076026,34.83,0.0
-51.0,16.0,35.0,-4.79,2.512563,34.39,0.0
56.0,-28.0,-5.0,21.99,7.185714,32.57,0.0
30.0,25.0,50.0,19.03,0.28936,33.31,0.0
46.0,-39.0,-17.0,8.16,0.235649,33.57,0.0
56.0,1.0,28.0,6.74,0.208734,34.16,0.0
-63.0,2.0,16.0,18.37,0.175513,31.41,0.0
53.0,-1.0,34.0,-58.43,0.305934,34.0,0.0
-55.0,15.0,15.0,-45.4,3.103882,33.83,0.0
62.0,-10.0,-4.0,57.44,4.899094,33.99,0.0
64.0,0.0,-6.0,-21.86,0.188623,34.29,0.0
39.0,-42.0,25.0,56.5,2.754958,34.21,0.0
-17.0,61.0,9.0,-20.52,2.233552,32.27,0.0
-16.0,-8.0,-61.0,31.79,0.121788,33.05,0.0
42.0,26.0,40.0,-7.53,0.352039,33.43,0.0
43.0,-1.0,44.0,-22.91,0.364765,34.0,0.0
26.0,26.0,51.0,-5.09,0.24972,33.27,0.0
63.0,7.0,2.0,-103.45,1.082322,33.81,0.0
52.0,-34.0,-10.0,1.79,0.238207,33.59,0.0
28.0,57.0,3.0,-45.43,0.236032,34.07,0.0
-50.0,-12.0,-40.0,-64.13,2.472906,34.39,0.0
52.0,-27.0,-8.0,-55.6,6.187189,33.16,0.0
60.0,0.0,-19.0,15.46,0.157871,34.11,0.0
57.0,23.0,17.0,31.29,0.178372,33.93,0.0
20.0,7.0,59.0,-30.52,0.482515,31.59,0.0
53.0,1.0,34.0,3.15,0.304655,34.05,0.0
-42.0,21.0,44.0,-8.74,3.053991,34.31,0.0
52.0,10.0,34.0,-12.37,0.395531,31.01,0.0
41.0,14.0,-47.0,-12.82,0.113024,35.97,0.0
-23.0,61.0,11.0,-39.06,2.234072,32.16,0.0
20.0,-9.0,59.0,2.48,3.574693,32.61,0.0
63.0,-9.0,7.0,36.92,4.639406,34.25,0.0
55.0,2.0,32.0,10.62,0.325118,34.03,0.0
-18.0,61.0,9.0,-83.64,1.978237,32.25,0.0
-33.0,-8.0,-55.0,30.32,0.108996,33.11,0.0
-55.0,-6.0,-34.0,32.98,0.106438,33.07,0.0
13.0,-8.0,61.0,-8.64,5.080173,32.75,0.0
20.0,7.0,59.0,14.34,0.415998,31.59,0.0
57.0,5.0,27.0,-15.95,0.258675,33.41,0.0
60.0,10.0,21.0,-2.27,0.233034,33.97,0.0
57.0,6.0,27.0,17.69,0.263792,33.43,0.0
51.0,6.0,37.0,-20.29,6.33814,34.79,0.0
31.0,-34.0,44.0,97.16,6.779482,34.75,0.0
53.0,10.0,33.0,38.66,0.390415,31.05,0.0
31.0,56.0,-13.0,-180.14,0.165559,34.11,0.0
20.0,7.0,59.0,25.68,0.469723,31.57,0.0
-30.0,57.0,8.0,5.55,2.284624,31.99,0.0
-33.0,-7.0,-55.0,29.54,0.112834,33.11,0.0
60.0,-4.0,18.0,22.15,1.62853,34.03,0.0
55.0,-30.0,-5.0,-27.27,6.845433,32.83,0.0
60.0,-12.0,13.0,-23.2,4.354673,34.23,0.0
59.0,-5.0,21.0,11.47,0.989058,35.23,0.0
25.0,57.0,13.0,-50.15,0.229625,34.03,0.0
55.0,24.0,22.0,14.95,0.154027,35.89,0.0
62.0,8.0,-10.0,-15.66,0.98768,34.05,0.0
56.0,-28.0,-4.0,-4.74,7.203623,32.57,0.0
57.0,22.0,18.0,-21.05,0.302661,33.68,0.0
28.0,26.0,51.0,-33.47,0.257396,33.29,0.0
6.0,18.0,60.0,24.21,0.245868,34.16,0.0
-32.0,55.0,11.0,1.11,3.959698,32.21,0.0
18.0,-7.0,59.0,-21.55,0.363486,33.97,0.0
50.0,35.0,-42.0,-2.33,6.810184,33.09,0.0
34.0,23.0,48.0,18.25,0.27401,33.37,0.0
29.0,19.0,50.0,-8.96,0.212609,34.53,0.0
-29.0,56.0,10.0,-0.12,2.234655,32.0,0.0
60.0,-18.0,-7.0,66.56,2.95659,33.83,0.0
30.0,12.0,54.0,10.41,0.907107,34.34,0.0
-29.0,60.0,10.0,2.11,1.902015,31.93,0.0
60.0,-4.0,18.0,5.35,1.476335,33.79,0.0
-22.0,-4.0,-60.0,-36.6,0.121788,33.03,0.0
-63.0,19.0,-2.0,3.44,2.332188,31.49,0.0
-32.0,-26.0,43.0,37.32,2.738016,34.37,0.0
-32.0,-7.0,-56.0,32.08,0.120509,33.07,0.0
52.0,10.0,34.0,-16.58,0.392973,31.01,0.0
21.0,7.0,59.0,4.33,0.412161,31.61,0.0
63.0,0.0,-4.0,2.59,0.233469,34.37,0.0
28.0,25.0,51.0,58.44,0.254837,33.27,0.0
27.0,26.0,51.0,-35.21,0.259954,33.27,0.0
49.0,31.0,25.0,-8.76,0.673035,35.75,0.0
62.0,-1.0,-13.0,17.5,0.450536,34.33,0.0
60.0,-4.0,18.0,18.45,1.614461,34.03,0.0
30.0,11.0,54.0,-41.7,0.932685,34.5,0.0
28.0,25.0,51.0,23.58,0.26763,33.29,0.0
56.0,-28.0,-2.0,73.53,6.61318,32.97,0.0
13.0,-8.0,61.0,-14.55,4.764905,32.73,0.0
-23.0,-12.0,-59.0,32.47,0.126905,32.99,0.0
27.0,25.0,51.0,44.25,0.252279,33.27,0.0
48.0,29.0,26.0,19.08,0.231755,34.0,0.0
53.0,8.0,28.0,-42.92,1.087004,35.83,0.0
53.0,10.0,33.0,-15.6,0.399369,31.07,0.0
-33.0,-8.0,-55.0,37.78,0.139696,32.91,0.0
-11.0,1.0,62.0,23.7,1.279203,35.77,0.0
-64.0,14.0,-4.0,-10.79,0.441018,30.63,0.0
57.0,-27.0,1.0,-3.41,6.588874,32.97,0.0
-33.0,48.0,-3.0,4.71,2.791122,32.49,0.0
21.0,11.0,58.0,-6.03,0.944776,35.68,0.0
60.0,-14.0,-12.0,-12.86,6.674013,34.71,0.0
-30.0,51.0,6.0,-36.45,5.145238,32.29,0.0
-35.0,-7.0,-54.0,101.08,0.116671,33.07,0.0
13.0,-9.0,61.0,10.17,5.020063,32.77,0.0
51.0,9.0,-28.0,18.34,6.61318,33.15,0.0
56.0,23.0,17.0,-18.8,0.184779,33.79,0.0
49.0,-32.0,23.0,9.73,4.543462,33.73,0.0
32.0,-33.0,-32.0,26.73,3.49284,33.75,0.0
57.0,-28.0,-2.0,-10.85,6.855667,32.91,0.0
60.0,-20.0,-4.0,-17.47,2.902865,33.84,0.0
56.0,-11.0,26.0,-16.27,4.679062,34.33,0.0
20.0,7.0,59.0,-5.07,0.442861,31.59,0.0
61.0,-2.0,-13.0,15.06,0.449257,34.37,0.0
57.0,6.0,27.0,-20.44,0.261234,33.41,0.0
59.0,-21.0,-7.0,-4.47,2.193897,34.03,0.0
-32.0,55.0,10.0,20.8,2.648903,32.09,0.0
-50.0,10.0,35.0,16.88,2.484419,34.39,0.0
60.0,-4.0,18.0,-12.9,1.233336,33.97,0.0
40.0,37.0,33.0,7.17,0.578216,35.75,0.0
28.0,26.0,50.0,17.22,0.286802,33.31,0.0
19.0,7.0,59.0,6.04,0.495307,31.59,0.0
60.0,-4.0,18.0,0.8,1.0837,34.79,0.0
-21.0,-6.0,-61.0,-65.79,0.120509,33.07,0.0
-64.0,14.0,-4.0,-1.46,0.442299,30.57,0.0
-64.0,14.0,-5.0,-9.46,0.441018,30.65,0.0
38.0,51.0,-7.0,6.93,0.265056,33.57,0.0
56.0,17.0,24.0,-7.95,0.173247,35.91,0.0
-59.0,-19.0,16.0,-12.78,2.836519,34.33,0.0
-64.0,-13.0,-1.0,4.65,2.943976,34.31,0.0
-63.0,1.0,17.0,-22.48,0.178072,31.45,0.0
-63.0,19.0,-4.0,0.84,2.307883,31.45,0.0
-42.0,-15.0,46.0,-24.98,3.184475,34.25,0.0
40.0,19.0,45.0,3.12,0.243266,34.03,0.0
57.0,6.0,27.0,-0.4,0.259954,33.43,0.0
66.0,-9.0,9.0,46.81,5.536808,32.97,0.0
61.0,-2.0,-13.0,6.14,0.44414,34.29,0.0
-21.0,53.0,10.0,-11.99,0.437174,32.61,0.0
-62.0,20.0,-3.0,1.25,2.361611,31.53,0.0
54.0,2.0,32.0,21.19,0.317445,34.03,0.0
40.0,19.0,45.0,-12.71,0.23815,34.0,0.0
56.0,22.0,17.0,-22.84,0.210405,33.66,0.0
27.0,17.0,55.0,-4.6,0.983843,34.49,0.0
38.0,19.0,46.0,107.75,0.24203,34.16,0.0
23.0,28.0,53.0,2.48,0.215168,34.39,0.0
-62.0,17.0,-12.0,-13.53,2.393592,31.61,0.0
20.0,7.0,59.0,-3.56,0.45949,31.59,0.0
62.0,-2.0,-12.0,-3.13,0.453094,34.25,0.0
60.0,-11.0,13.0,1.76,4.357232,34.39,0.0
29.0,27.0,49.0,-20.82,0.27401,33.49,0.0
50.0,31.0,23.0,-19.94,0.383385,35.84,0.0
63.0,1.0,-9.0,7.8,0.214249,34.37,0.0
5.0,-60.0,20.0,-13.68,0.234369,33.53,0.0
-63.0,16.0,-3.0,-8.21,2.566291,31.81,0.0
56.0,18.0,24.0,7.75,0.174528,35.91,0.0
54.0,11.0,-30.0,4.09,0.14762,35.93,0.0
13.0,-9.0,61.0,1.13,4.60248,32.71,0.0
-40.0,24.0,44.0,66.17,3.079576,34.31,0.0
48.0,-23.0,31.0,0.98,5.683922,32.99,0.0
29.0,57.0,3.0,-18.27,0.256533,34.09,0.0
20.0,-9.0,59.0,13.75,3.440404,32.55,0.0
54.0,10.0,32.0,-1.04,0.392973,31.21,0.0
62.0,-2.0,-13.0,-2.18,0.454373,34.43,0.0
56.0,23.0,17.0,21.71,0.179653,33.87,0.0
-61.0,18.0,-11.0,5.89,2.39871,31.65,0.0
28.0,25.0,51.0,31.39,0.266351,33.29,0.0
-40.0,23.0,44.0,29.8,3.07318,34.31,0.0
54.0,11.0,-30.0,-7.5,0.14762,35.91,0.0
37.0,-17.0,67.0,51.01,0.478591,33.84,0.0
53.0,-15.0,30.0,13.26,4.736629,34.27,0.0
-62.0,21.0,-7.0,2.26,2.316837,31.45,0.0
21.0,7.0,59.0,2.41,0.436465,31.61,0.0
64.0,0.0,-9.0,-162.66,6.329186,33.15,0.0
60.0,-4.0,18.0,6.01,1.352278,33.75,0.0
62.0,0.0,12.0,15.0,0.157871,34.59,0.0
62.0,0.0,12.0,10.59,0.164277,34.59,0.0
-20.0,-11.0,-60.0,49.12,0.123067,32.99,0.0
-62.0,17.0,-10.0,-5.22,2.411502,31.63,0.0
-61.0,21.0,-11.0,-11.59,2.412781,31.65,0.0
-29.0,57.0,10.0,-3.18,2.036061,31.99,0.0
55.0,-29.0,-4.0,5.23,7.193389,32.59,0.0
-53.0,19.0,31.0,23.71,3.138422,34.27,0.0
54.0,10.0,31.0,-19.11,0.391694,31.23,0.0
39.0,50.0,-8.0,-12.83,0.266335,33.57,0.0
57.0,22.0,17.0,8.96,0.2245,33.63,0.0
60.0,-4.0,18.0,-5.92,1.270425,33.87,0.0
56.0,-11.0,25.0,-7.12,4.681621,34.29,0.0
54.0,-12.0,-31.0,-9.24,0.423673,34.09,0.0
17.0,61.0,5.0,14.82,0.245868,33.89,0.0
20.0,7.0,59.0,18.39,0.419836,31.59,0.0
62.0,-2.0,-13.0,22.6,0.445419,34.23,0.0
-34.0,-5.0,-55.0,-42.87,0.115392,33.11,0.0
22.0,10.0,59.0,7.67,0.253543,34.07,0.0
59.0,-15.0,-16.0,119.88,6.956728,34.71,0.0
51.0,-19.0,31.0,19.56,5.769316,33.03,0.0
-60.0,-21.0,-17.0,-5.27,2.933436,34.29,0.0
45.0,-43.0,11.0,-48.85,3.746071,33.73,0.0
57.0,-28.0,-5.0,2.61,6.258827,33.18,0.0
-17.0,-9.0,-61.0,-22.74,0.120509,33.03,0.0
-64.0,13.0,-5.0,-4.88,0.447425,30.65,0.0
59.0,-5.0,21.0,4.42,1.012079,35.21,0.0
27.0,25.0,51.0,-18.92,0.24972,33.27,0.0
54.0,6.0,32.0,4.17,0.234313,33.95,0.0
-54.0,19.0,31.0,18.33,3.133305,34.29,0.0
57.0,-26.0,8.0,-13.58,7.651744,34.66,0.0
46.0,26.0,34.0,20.92,0.758884,35.71,0.0
56.0,23.0,17.0,13.63,0.178372,34.03,0.0
20.0,7.0,59.0,26.96,0.454373,31.61,0.0
57.0,22.0,17.0,11.21,0.221937,33.65,0.0
-40.0,-20.0,46.0,33.37,2.495933,34.34,0.0
60.0,0.0,-19.0,-10.06,0.160433,34.13,0.0
57.0,22.0,17.0,-7.22,0.288566,33.65,0.0
-64.0,14.0,-5.0,7.73,0.453831,30.63,0.0
-61.0,22.0,-10.0,3.72,2.328351,31.49,0.0
23.0,13.0,58.0,11.98,0.249705,34.23,0.0
59.0,14.0,-8.0,-28.18,6.941947,33.0,0.0
62.0,-2.0,-13.0,-26.86,0.451815,34.43,0.0
-62.0,17.0,-12.0,-5.86,2.359053,31.57,0.0
61.0,1.0,-14.0,39.91,7.712922,33.41,0.0
20.0,-9.0,59.0,2.22,3.659103,32.61,0.0
-27.0,57.0,11.0,-6.55,4.465223,32.29,0.0
56.0,-17.0,23.0,12.44,4.755817,34.07,0.0
33.0,19.0,50.0,-121.0,0.231797,34.29,0.0
55.0,-29.0,-4.0,-41.59,6.989988,32.84,0.0
77.0,-31.0,-10.0,-116.73,6.413616,33.09,0.0
37.0,51.0,-7.0,-22.58,0.267614,33.55,0.0
-63.0,1.0,17.0,-29.65,0.179351,31.43,0.0
61.0,-2.0,-14.0,-11.44,0.458211,34.53,0.0
62.0,-2.0,-13.0,-42.36,0.450536,34.41,0.0
5.0,0.0,68.0,-84.61,8.823054,34.79,0.0
-61.0,17.0,-10.0,-6.09,2.39871,31.63,0.0
-63.0,15.0,-5.0,-17.98,0.456393,30.59,0.0
67.0,-33.0,-13.0,-25.24,6.120668,33.21,0.0
46.0,0.0,43.0,-17.75,0.217687,34.05,0.0
60.0,-4.0,18.0,-8.56,1.211594,34.03,0.0
-53.0,19.0,31.0,23.12,3.129467,34.29,0.0
13.0,-8.0,61.0,-15.3,4.793043,32.68,0.0
28.0,55.0,-15.0,-70.7,0.248845,34.11,0.0
-33.0,-8.0,-55.0,29.79,0.110275,33.09,0.0
54.0,22.0,-9.0,-26.84,0.259939,34.13,0.0
61.0,-14.0,-14.0,-72.53,7.398802,34.71,0.0
20.0,7.0,59.0,15.93,0.462048,31.61,0.0
62.0,-1.0,12.0,-29.26,0.146339,34.65,0.0
59.0,-21.0,-7.0,-10.15,2.181106,34.0,0.0
-52.0,-20.0,32.0,-71.58,2.401268,34.41,0.0
57.0,-27.0,1.0,-10.81,6.970799,32.93,0.0
-54.0,-22.0,28.0,32.23,2.365449,34.47,0.0
62.0,-2.0,-13.0,-27.85,0.453094,34.45,0.0
32.0,23.0,49.0,32.22,0.247162,33.27,0.0
58.0,-22.0,-12.0,-35.82,2.361469,34.09,0.0
62.0,-1.0,-12.0,-27.35,0.451815,34.29,0.0
60.0,-12.0,12.0,-5.1,4.348277,34.16,0.0
61.0,-14.0,9.0,8.02,4.518417,30.15,0.0
36.0,-16.0,48.0,0.95,8.213919,33.41,0.0
57.0,-25.0,-3.0,-22.57,7.212578,32.61,0.0
28.0,-9.0,56.0,31.88,0.399297,33.93,0.0
58.0,22.0,16.0,5.59,0.325725,33.73,0.0
40.0,13.0,-46.0,15.29,0.114305,35.95,0.0
54.0,25.0,20.0,-23.48,0.452577,35.79,0.0
28.0,26.0,51.0,3.82,0.258675,33.31,0.0
20.0,7.0,59.0,-28.14,0.395531,31.63,0.0
28.0,-32.0,46.0,40.59,8.079014,34.75,0.0
-31.0,56.0,9.0,-31.14,2.655309,32.5,0.0
-64.0,15.0,-6.0,-4.92,0.457675,30.59,0.0
57.0,2.0,21.0,-14.89,0.198873,34.47,0.0
20.0,7.0,59.0,-11.41,0.464607,31.59,0.0
-59.0,-20.0,16.0,18.44,2.821167,34.29,0.0
-21.0,-6.0,-61.0,34.04,0.120509,33.07,0.0
-62.0,18.0,-10.0,6.36,2.373124,31.57,0.0
49.0,13.0,-38.0,-8.85,0.825254,34.18,0.0
-64.0,13.0,-6.0,8.96,0.453831,30.65,0.0
54.0,10.0,32.0,-15.8,0.391694,31.05,0.0
-18.0,-11.0,-61.0,38.13,0.125626,32.99,0.0
62.0,-1.0,-12.0,14.35,0.449257,34.29,0.0
40.0,37.0,33.0,22.97,0.60128,35.75,0.0
38.0,-43.0,25.0,4.94,2.970126,34.05,0.0
20.0,8.0,59.0,20.78,0.399369,31.61,0.0
-29.0,57.0,9.0,-40.88,1.541983,31.89,0.0
54.0,23.0,22.0,2.06,0.157871,35.91,0.0
-52.0,16.0,35.0,-31.21,2.498491,34.41,0.0
-58.0,-22.0,19.0,0.76,2.876175,34.29,0.0
21.0,7.0,59.0,-6.16,0.412161,31.61,0.0
-31.0,55.0,10.0,-1.87,3.264344,32.13,0.0
30.0,25.0,50.0,0.38,0.32006,33.33,0.0
20.0,8.0,59.0,-9.49,0.389135,31.63,0.0
-19.0,-12.0,-61.0,20.87,0.124346,32.99,0.0
-49.0,-7.0,-40.0,-1.33,3.584578,32.45,0.0
55.0,-17.0,24.0,15.55,4.755817,34.23,0.0
59.0,19.0,-1.0,12.22,0.374416,35.89,0.0
56.0,-29.0,-6.0,23.52,6.384193,33.05,0.0
55.0,-29.0,1.0,64.54,6.860784,32.87,0.0
-28.0,57.0,12.0,-3.86,0.505081,32.57,0.0
20.0,8.0,59.0,14.03,0.394252,31.63,0.0
56.0,-27.0,0.0,85.62,6.549217,32.99,0.0
-20.0,-7.0,-61.0,-11.68,0.11923,33.05,0.0
60.0,-13.0,-13.0,47.23,6.652266,34.73,0.0
33.0,23.0,49.0,-3.61,0.251,33.25,0.0
-53.0,-20.0,31.0,27.97,2.470347,34.41,0.0
50.0,18.0,34.0,-13.42,0.302152,33.31,0.0
53.0,-12.0,-32.0,7.61,0.408323,34.13,0.0
-18.0,-8.0,-61.0,-82.76,0.117951,33.05,0.0
23.0,54.0,1.0,-28.57,0.261218,33.55,0.0
37.0,2.0,51.0,-50.38,0.382473,33.29,0.0
38.0,-41.0,26.0,-35.81,2.774142,34.05,0.0
60.0,-5.0,0.0,-87.25,6.979754,33.0,0.0
10.0,-48.0,39.0,-40.19,2.538148,31.71,0.0
46.0,0.0,43.0,-2.47,0.215129,34.09,0.0
-48.0,-18.0,38.0,34.55,2.738016,34.37,0.0
31.0,27.0,49.0,39.95,0.275289,33.47,0.0
51.0,-13.0,-34.0,19.56,0.412161,34.21,0.0
26.0,17.0,55.0,2.06,0.224122,34.23,0.0
59.0,-13.0,16.0,-17.68,4.739187,33.93,0.0
27.0,25.0,51.0,16.66,0.24972,33.31,0.0
55.0,-30.0,-4.0,-33.05,7.112796,32.59,0.0
-62.0,18.0,-11.0,4.86,2.391034,31.61,0.0
61.0,-14.0,8.0,5.41,4.519697,30.21,0.0
53.0,-15.0,31.0,3.81,4.739187,34.31,0.0
62.0,0.0,12.0,19.84,0.162996,34.59,0.0
56.0,-29.0,-7.0,49.24,6.366284,32.97,0.0
28.0,25.0,51.0,-61.31,0.261234,33.29,0.0
0.0,18.0,65.0,146.2,1.317647,34.21,0.0
27.0,25.0,51.0,50.44,0.257396,33.29,0.0
16.0,62.0,7.0,-7.58,0.219005,34.39,0.0
62.0,-2.0,-13.0,-4.6,0.44414,34.23,0.0
80.0,6.0,-2.0,81.27,0.180935,35.87,0.0
-14.0,61.0,12.0,25.28,1.984633,32.27,0.0
-29.0,57.0,10.0,0.16,2.528465,32.05,0.0
57.0,-28.0,-4.0,-13.68,7.215137,32.57,0.0
-28.0,57.0,10.0,-8.59,4.478036,32.29,0.0
62.0,-1.0,-12.0,-17.59,0.451815,34.29,0.0
-18.0,-7.0,-61.0,40.31,0.120509,33.07,0.0
20.0,8.0,59.0,25.22,0.39809,31.61,0.0
-63.0,-17.0,-7.0,14.53,2.94495,34.29,0.0
62.0,5.0,12.0,4.91,0.394181,33.84,0.0
50.0,0.0,-35.0,-32.25,8.799191,33.29,0.0
30.0,14.0,54.0,1.27,0.175809,35.91,0.0
20.0,7.0,59.0,4.62,0.415998,31.59,0.0
52.0,-12.0,-33.0,28.19,0.417277,34.13,0.0
44.0,20.0,40.0,19.32,0.235635,34.25,0.0
55.0,-30.0,-6.0,12.87,6.945214,32.79,0.0
52.0,-18.0,30.0,-29.0,5.495872,32.95,0.0
60.0,0.0,-16.0,16.33,0.188623,34.25,0.0
-51.0,-15.0,-20.0,-42.03,0.184468,31.35,0.0
37.0,22.0,48.0,31.84,0.238193,34.18,0.0
26.0,26.0,51.0,-42.99,0.247162,33.25,0.0
41.0,19.0,45.0,17.23,0.243266,34.03,0.0
26.0,17.0,55.0,-13.79,0.991517,34.43,0.0
62.0,-2.0,-12.0,15.46,0.446698,34.23,0.0
25.0,57.0,14.0,-17.54,0.316756,34.07,0.0
59.0,-14.0,-11.0,34.09,6.633077,34.71,0.0
57.0,6.0,27.0,17.53,0.258675,33.41,0.0
57.0,-14.0,-23.0,2.49,0.404486,34.31,0.0
-42.0,-26.0,40.0,47.6,3.143539,34.21,0.0
-64.0,13.0,-5.0,1.12,0.446143,30.67,0.0
-60.0,-20.0,16.0,31.03,2.827564,34.31,0.0
16.0,19.0,59.0,42.46,0.24331,34.15,0.0
36.0,28.0,-23.0,55.89,6.653545,33.0,0.0
47.0,-38.0,-18.0,-32.81,0.236928,33.59,0.0
30.0,12.0,55.0,-45.09,0.921175,34.45,0.0
60.0,-4.0,18.0,-12.37,1.186015,34.18,0.0
37.0,-40.0,-32.0,31.64,3.691077,33.79,0.0
-48.0,62.0,16.0,-1.13,1.846921,31.97,0.0
-34.0,-7.0,-52.0,-67.49,0.116671,33.07,0.0
41.0,36.0,32.0,-19.61,0.530807,35.83,0.0
46.0,-40.0,-17.0,-26.59,0.234369,33.55,0.0
48.0,-33.0,23.0,-16.46,4.712323,33.5,0.0
28.0,-47.0,-30.0,-98.69,0.234369,33.59,0.0
20.0,7.0,59.0,10.87,0.410881,31.59,0.0
61.0,-15.0,-3.0,19.38,4.902931,33.83,0.0
60.0,-4.0,18.0,8.79,1.504472,33.87,0.0
41.0,-46.0,-17.0,-71.01,0.23309,33.57,0.0
57.0,23.0,17.0,-31.0,0.195029,33.66,0.0
57.0,5.0,25.0,6.21,0.259954,33.45,0.0
-45.0,-26.0,38.0,-14.15,3.001542,34.31,0.0
27.0,25.0,51.0,-84.95,0.258675,33.27,0.0
62.0,-1.0,-12.0,10.34,0.445419,34.23,0.0
62.0,-2.0,-13.0,6.1,0.451815,34.43,0.0
55.0,-29.0,-1.0,34.78,7.197227,32.59,0.0
20.0,-9.0,59.0,7.2,3.587482,32.57,0.0
59.0,-22.0,-2.0,-9.34,4.978407,33.93,0.0
-53.0,-20.0,31.0,26.35,2.474185,34.43,0.0
-64.0,13.0,-6.0,6.38,0.441018,30.67,0.0
-19.0,-8.0,-61.0,7.14,0.121788,33.05,0.0
18.0,61.0,5.0,-70.06,0.224122,34.37,0.0
60.0,-19.0,-6.0,-105.71,6.608063,33.07,0.0
59.0,0.0,-15.0,-36.87,0.193748,34.25,0.0
40.0,14.0,-46.0,22.97,0.114305,35.93,0.0
62.0,-1.0,12.0,20.42,0.143776,34.65,0.0
20.0,7.0,59.0,8.56,0.45949,31.59,0.0
55.0,6.0,31.0,-15.72,0.258675,33.47,0.0
-19.0,-6.0,-61.0,37.71,0.120509,33.07,0.0
60.0,-19.0,-2.0,24.45,3.312201,33.87,0.0
38.0,-39.0,-31.0,-81.21,3.59004,33.79,0.0
60.0,-4.0,18.0,10.1,1.053005,34.87,0.0
26.0,16.0,55.0,-6.87,0.225401,34.23,0.0
34.0,17.0,50.0,18.12,0.21133,34.49,0.0
60.0,-15.0,9.0,3.22,4.527372,30.19,0.0
20.0,7.0,59.0,-18.89,0.427511,31.59,0.0
30.0,-48.0,-27.0,27.19,0.235649,33.57,0.0
53.0,8.0,33.0,-3.62,0.208734,33.97,0.0
-35.0,-20.0,49.0,-105.25,2.975957,34.31,0.0
59.0,3.0,17.0,10.73,0.202717,34.47,0.0
-30.0,57.0,10.0,4.73,4.510067,32.29,0.0
20.0,-9.0,59.0,15.25,3.503072,32.55,0.0
-17.0,61.0,9.0,85.15,2.14273,32.29,0.0
54.0,-33.0,-8.0,11.0,0.239486,33.61,0.0
58.0,5.0,25.0,5.38,0.259954,33.43,0.0
64.0,-12.0,-13.0,19.92,0.357758,35.89,0.0
-62.0,18.0,-11.0,-6.5,2.373124,31.57,0.0
61.0,-2.0,-13.0,-5.52,0.451815,34.43,0.0
26.0,59.0,7.0,48.58,0.261218,33.55,0.0
-64.0,-13.0,-1.0,16.45,2.942696,34.34,0.0
22.0,11.0,59.0,7.71,0.993467,35.71,0.0
22.0,10.0,58.0,9.59,0.256101,34.07,0.0
29.0,25.0,50.0,15.79,0.286802,33.31,0.0
55.0,-28.0,-12.0,49.2,6.224287,33.15,0.0
35.0,51.0,-7.0,-29.79,6.947773,32.95,0.0
55.0,25.0,18.0,25.52,0.526894,35.81,0.0
-65.0,-1.0,6.0,-21.54,0.187026,31.47,0.0
-15.0,60.0,8.0,-149.46,2.095401,32.29,0.0
57.0,-11.0,25.0,-13.1,4.689296,34.27,0.0
59.0,-4.0,21.0,1.69,0.992895,35.25,0.0
53.0,10.0,33.0,9.43,0.394252,31.09,0.0
-64.0,14.0,-5.0,-6.24,0.439737,30.69,0.0
54.0,25.0,20.0,5.14,0.514081,35.79,0.0
58.0,-26.0,-3.0,-17.39,6.443039,33.03,0.0
25.0,57.0,14.0,-26.64,0.332132,34.07,0.0
53.0,25.0,22.0,-29.03,0.097648,35.89,0.0
-48.0,13.0,-25.0,9.44,2.820591,32.5,0.0
-66.0,36.0,2.0,-1.02,1.848202,31.97,0.0
-32.0,-7.0,-55.0,-28.82,0.120509,33.07,0.0
-20.0,-7.0,-61.0,-19.25,0.11923,33.07,0.0
-63.0,18.0,-2.0,2.29,2.318117,31.51,0.0
58.0,-14.0,21.0,-107.83,5.635311,32.97,0.0
6.0,-53.0,33.0,4.39,2.520238,31.73,0.0
-19.0,60.0,10.0,-124.1,2.102317,32.21,0.0
63.0,0.0,-4.0,12.9,0.212968,34.34,0.0
-42.0,22.0,43.0,12.78,3.039919,34.31,0.0
53.0,10.0,33.0,-13.49,0.394252,31.05,0.0
24.0,22.0,55.0,70.42,0.248441,33.27,0.0
57.0,5.0,27.0,14.26,0.261234,33.43,0.0
-29.0,59.0,10.0,-0.09,1.69189,31.91,0.0
41.0,42.0,-21.0,-131.51,6.665629,34.77,0.0
60.0,-12.0,12.0,6.24,4.372583,34.49,0.0
61.0,-15.0,-3.0,-0.53,4.90549,33.87,0.0
-64.0,14.0,-6.0,-18.88,0.457675,30.59,0.0
-65.0,-1.0,9.0,24.66,0.192143,31.43,0.0
33.0,2.0,54.0,5.99,0.374798,33.27,0.0
46.0,35.0,28.0,0.61,0.124556,35.91,0.0
-17.0,-9.0,-60.0,-42.66,0.121788,33.03,0.0
27.0,25.0,51.0,-61.39,0.259954,33.27,0.0
56.0,-29.0,-4.0,5.78,7.213857,32.61,0.0
58.0,3.0,6.0,-102.41,0.227062,34.27,0.0
57.0,-12.0,25.0,3.07,4.71744,34.21,0.0
55.0,-30.0,-3.0,14.69,6.90172,32.89,0.0
28.0,25.0,51.0,33.68,0.254837,33.31,0.0
-30.0,57.0,9.0,-3.4,1.961748,31.97,0.0
58.0,-22.0,-13.0,1.97,2.082609,33.97,0.0
59.0,-22.0,-3.0,-6.27,3.140418,33.75,0.0
48.0,-33.0,23.0,1.14,4.663712,33.57,0.0
61.0,-17.0,-20.0,82.67,2.370423,34.09,0.0
-45.0,-1.0,47.0,-45.88,0.106438,33.09,0.0
47.0,-34.0,24.0,6.29,4.749421,33.45,0.0
-63.0,2.0,17.0,-4.99,0.197259,31.39,0.0
-62.0,18.0,-11.0,-5.99,2.378242,31.57,0.0
32.0,29.0,47.0,-139.57,0.344364,33.39,0.0
53.0,10.0,33.0,0.54,0.404486,31.11,0.0
18.0,5.0,60.0,2.69,8.246595,34.75,0.0
20.0,-9.0,59.0,-24.02,3.57853,32.57,0.0
61.0,-2.0,-13.0,-7.38,0.445419,34.29,0.0
63.0,0.0,-10.0,61.87,0.196311,34.33,0.0
-35.0,-5.0,-54.0,-34.99,0.11923,33.11,0.0
27.0,26.0,51.0,0.44,0.257396,33.27,0.0
53.0,-12.0,-31.0,12.25,0.419836,34.09,0.0
61.0,-2.0,-14.0,-10.43,0.453094,34.45,0.0
45.0,34.0,27.0,23.25,0.496211,35.83,0.0
38.0,-39.0,-32.0,19.03,3.835597,33.89,0.0
-17.0,-7.0,-62.0,-55.41,0.121788,33.07,0.0
-64.0,14.0,-4.0,8.79,0.443581,30.67,0.0
64.0,0.0,-8.0,-42.38,0.195029,34.34,0.0
60.0,0.0,-19.0,-12.63,0.157871,34.13,0.0
-49.0,-18.0,-41.0,-59.61,2.856987,34.31,0.0
-18.0,61.0,8.0,-119.1,2.132497,32.29,0.0
-56.0,-24.0,19.0,55.23,2.339864,34.45,0.0
54.0,26.0,21.0,-12.8,0.095085,35.91,0.0
62.0,-2.0,-12.0,3.05,0.446698,34.25,0.0
53.0,34.0,-33.0,-21.02,6.754606,32.97,0.0
31.0,13.0,54.0,-23.36,0.243324,33.53,0.0
62.0,-6.0,9.0,3.12,8.854186,33.03,0.0
27.0,25.0,51.0,49.59,0.247162,33.25,0.0
60.0,-4.0,18.0,2.14,1.585046,34.05,0.0
52.0,8.0,35.0,-39.04,0.217687,33.97,0.0
31.0,11.0,54.0,-35.71,0.868738,34.09,0.0
53.0,-12.0,-32.0,13.38,0.419836,34.11,0.0
63.0,-6.0,8.0,-17.61,8.827328,33.0,0.0
-32.0,-7.0,-56.0,-7.69,0.121788,33.07,0.0
-64.0,13.0,-5.0,-16.21,0.455112,30.59,0.0
-23.0,-8.0,45.0,-34.34,2.68045,34.37,0.0
51.0,31.0,24.0,-26.2,0.373134,35.84,0.0
60.0,-12.0,12.0,10.92,4.34316,33.95,0.0
28.0,25.0,51.0,-19.51,0.26763,33.29,0.0
-64.0,14.0,-4.0,9.56,0.442299,30.55,0.0
53.0,10.0,33.0,-26.17,0.392973,31.09,0.0
56.0,20.0,6.0,-98.55,1.188474,33.89,0.0
-22.0,-12.0,-59.0,37.51,0.125626,32.99,0.0
-18.0,-11.0,-61.0,19.97,0.124346,33.0,0.0
15.0,-9.0,60.0,7.95,4.504541,32.68,0.0
37.0,22.0,46.0,14.9,0.271451,33.37,0.0
-49.0,-13.0,-41.0,34.17,2.438366,34.39,0.0
54.0,7.0,31.0,-3.91,0.233034,33.97,0.0
-17.0,-8.0,-62.0,0.56,0.120509,33.05,0.0
51.0,-13.0,-34.0,24.25,0.41344,34.21,0.0
40.0,-41.0,25.0,-98.89,2.504285,34.23,0.0
30.0,11.0,54.0,-47.28,0.922454,34.45,0.0
56.0,-18.0,23.0,10.1,4.781403,33.84,0.0
-17.0,-8.0,-62.0,21.28,0.120509,33.05,0.0
53.0,-12.0,-31.0,12.32,0.427511,34.05,0.0
-10.0,44.0,45.0,59.37,6.365005,34.79,0.0
3.0,-54.0,32.0,44.96,2.526635,31.73,0.0
-24.0,-8.0,-64.0,-13.38,3.020731,33.73,0.0
-25.0,-12.0,-57.0,72.16,0.126905,32.95,0.0
-55.0,-22.0,25.0,-68.76,2.350098,34.43,0.0
62.0,7.0,6.0,24.55,0.387786,33.84,0.0
-54.0,-18.0,30.0,18.42,2.757205,34.37,0.0
-33.0,-18.0,50.0,86.57,2.975957,34.31,0.0
56.0,-27.0,0.0,34.29,6.50956,33.03,0.0
43.0,37.0,-33.0,77.7,7.839794,34.73,0.0
17.0,10.0,58.0,3.77,1.194636,35.77,0.0
70.0,9.0,26.0,7.12,0.279597,35.79,0.0
63.0,1.0,-7.0,-62.99,0.173247,34.41,0.0
30.0,26.0,49.0,11.22,0.286802,33.31,0.0
-31.0,-9.0,-56.0,-59.63,0.116671,33.11,0.0
56.0,23.0,17.0,0.82,0.18606,33.73,0.0
26.0,26.0,51.0,20.55,0.245883,33.25,0.0
62.0,-2.0,-13.0,8.14,0.44414,34.25,0.0
20.0,-9.0,59.0,5.16,3.619456,32.57,0.0
-27.0,57.0,13.0,7.04,3.406563,32.45,0.0
-36.0,54.0,12.0,-10.37,4.007104,32.37,0.0
53.0,-13.0,-32.0,-25.16,0.41344,34.13,0.0
-62.0,20.0,-3.0,-13.69,2.373124,31.55,0.0
27.0,25.0,51.0,-47.02,0.252279,33.27,0.0
62.0,-2.0,-13.0,-4.4,0.453094,34.45,0.0
56.0,-29.0,-4.0,-4.67,6.845433,32.87,0.0
36.0,10.0,51.0,32.93,0.239486,33.53,0.0
-50.0,-17.0,37.0,34.1,2.755926,34.34,0.0
-32.0,54.0,3.0,2.85,5.038514,32.37,0.0
-17.0,-8.0,-61.0,34.25,0.11923,33.05,0.0
19.0,7.0,59.0,27.07,0.501703,31.59,0.0
-59.0,-6.0,28.0,-42.68,2.173561,34.37,0.0
56.0,8.0,31.0,7.12,0.233034,33.99,0.0
59.0,-13.0,16.0,-23.72,4.748142,34.45,0.0
57.0,6.0,27.0,-28.44,0.262513,33.39,0.0
-32.0,55.0,8.0,-9.24,2.360704,32.53,0.0
-33.0,55.0,12.0,0.17,4.109604,32.41,0.0
50.0,3.0,64.0,-54.68,0.482116,35.83,0.0
57.0,-12.0,24.0,4.26,4.709764,34.21,0.0
56.0,23.0,17.0,-13.1,0.201436,33.65,0.0
-63.0,1.0,19.0,9.0,0.192143,31.39,0.0
53.0,-30.0,17.0,15.05,4.49485,34.41,0.0
20.0,8.0,59.0,-21.88,0.390415,31.63,0.0
-18.0,-11.0,-61.0,-49.93,0.125626,33.0,0.0
19.0,61.0,6.0,-13.21,0.252264,33.65,0.0
61.0,-15.0,-3.0,6.36,4.893977,33.84,0.0
50.0,-31.0,22.0,-8.84,4.59847,33.65,0.0
54.0,9.0,33.0,-13.69,0.390415,31.05,0.0
56.0,-25.0,1.0,35.0,7.908874,34.71,0.0
57.0,22.0,17.0,10.77,0.24372,33.61,0.0
60.0,0.0,-21.0,-5.73,0.195029,34.23,0.0
-61.0,-18.0,-13.0,-20.83,2.939833,34.29,0.0
55.0,7.0,31.0,-5.5,0.231755,33.97,0.0
59.0,-22.0,-1.0,11.21,4.945147,33.95,0.0
55.0,7.0,35.0,-3.26,0.385298,31.15,0.0
-64.0,13.0,-5.0,-16.79,0.448706,30.65,0.0
27.0,25.0,51.0,-1.92,0.247162,33.25,0.0
57.0,22.0,17.0,9.59,0.242438,33.61,0.0
99.0,7.0,55.0,41.77,6.422571,34.79,0.0
57.0,5.0,27.0,-33.72,0.261234,33.41,0.0
13.0,-9.0,61.0,3.29,4.293516,32.63,0.0
-52.0,-20.0,32.0,1.39,2.438366,34.41,0.0
62.0,-2.0,-12.0,-1.45,0.454373,34.33,0.0
20.0,8.0,59.0,8.55,0.424952,31.59,0.0
60.0,0.0,-21.0,1.38,0.203999,34.29,0.0
32.0,16.0,51.0,-6.6,0.245868,34.15,0.0
-31.0,-8.0,-56.0,14.87,0.138417,32.91,0.0
26.0,25.0,51.0,-45.94,0.245883,33.27,0.0
24.0,-35.0,55.0,7.88,8.077735,34.73,0.0
28.0,27.0,49.0,29.78,0.345644,33.39,0.0
-29.0,56.0,13.0,-5.06,0.424362,32.61,0.0
-63.0,19.0,-2.0,-4.25,2.32963,31.51,0.0
54.0,2.0,32.0,-28.49,0.317445,34.03,0.0
51.0,9.0,35.0,0.54,0.399369,31.03,0.0
50.0,2.0,39.0,16.34,0.217687,34.05,0.0
51.0,-19.0,31.0,1.0,5.782108,33.05,0.0
-32.0,-8.0,-56.0,40.69,0.137138,32.91,0.0
-60.0,-20.0,16.0,33.34,2.780231,34.31,0.0
57.0,-12.0,23.0,11.37,4.712323,34.21,0.0
42.0,13.0,-45.0,-0.22,0.113024,35.91,0.0
-62.0,-19.0,4.0,-23.49,2.653585,34.39,0.0
61.0,-2.0,-14.0,6.7,0.458211,34.5,0.0
43.0,-44.0,16.0,-13.34,3.706424,33.61,0.0
53.0,8.0,33.0,-25.98,0.212571,33.95,0.0
56.0,22.0,18.0,-12.6,0.238594,33.63,0.0
77.0,-30.0,-26.0,-69.24,6.992547,32.95,0.0
54.0,10.0,31.0,-21.38,0.399369,31.13,0.0
49.0,-31.0,23.0,-9.3,4.522994,33.77,0.0
13.0,-9.0,61.0,1.64,4.4828,32.66,0.0
57.0,23.0,17.0,5.66,0.266784,33.66,0.0
-48.0,-18.0,38.0,-19.79,2.730341,34.37,0.0
-48.0,-18.0,38.0,46.29,2.732899,34.37,0.0
36.0,9.0,51.0,-23.73,0.254837,33.49,0.0
57.0,23.0,17.0,7.37,0.221937,33.65,0.0
57.0,-27.0,-1.0,-7.64,6.993117,32.93,0.0
60.0,0.0,-19.0,17.61,0.171965,34.15,0.0
63.0,0.0,-1.0,15.64,1.086258,34.89,0.0
37.0,51.0,-7.0,-25.18,0.267614,33.57,0.0
53.0,-14.0,31.0,13.91,4.737908,34.31,0.0
62.0,-2.0,-13.0,13.82,0.447978,34.37,0.0
60.0,4.0,19.0,-5.13,0.321281,34.05,0.0
41.0,19.0,43.0,19.35,0.244545,34.03,0.0
18.0,61.0,6.0,15.55,0.245868,33.93,0.0
64.0,4.0,4.0,-20.47,0.374997,33.84,0.0
60.0,-20.0,-3.0,-20.27,4.671387,33.81,0.0
16.0,22.0,57.0,8.31,1.298562,34.33,0.0
41.0,10.0,30.0,6.94,0.249705,34.13,0.0
-64.0,13.0,-5.0,9.08,0.451268,30.65,0.0
51.0,-19.0,31.0,-15.93,5.778271,33.05,0.0
-33.0,-8.0,-55.0,-70.34,0.137138,32.93,0.0
60.0,-11.0,13.0,-3.91,4.357232,34.41,0.0
57.0,-26.0,-5.0,-91.66,6.513398,33.03,0.0
-29.0,-31.0,-49.0,-22.91,0.121788,32.93,0.0
-31.0,56.0,9.0,3.5,4.718912,32.27,0.0
-65.0,-1.0,8.0,8.96,0.194701,31.47,0.0
26.0,25.0,51.0,27.48,0.245883,33.27,0.0
-25.0,-11.0,-58.0,-37.16,0.129463,32.93,0.0
29.0,-15.0,54.0,-9.65,8.068119,33.43,0.0
-41.0,-27.0,40.0,4.04,3.138422,34.21,0.0
55.0,19.0,23.0,-9.04,0.187341,35.81,0.0
-50.0,-12.0,-40.0,-29.18,2.443483,34.39,0.0
-51.0,-18.0,35.0,-42.7,2.353936,34.43,0.0
25.0,57.0,14.0,-52.07,0.24372,34.03,0.0
52.0,6.0,36.0,-10.27,0.227918,33.95,0.0
53.0,-12.0,-32.0,-29.18,0.418557,34.11,0.0
42.0,-43.0,14.0,-4.04,3.535046,33.65,0.0
38.0,23.0,-5.0,-6.72,6.939389,32.95,0.0
52.0,24.0,29.0,-58.05,0.340527,33.34,0.0
-63.0,2.0,17.0,15.17,0.183188,31.43,0.0
52.0,6.0,36.0,16.11,0.227918,33.95,0.0
26.0,25.0,51.0,17.46,0.247162,33.23,0.0
60.0,-16.0,10.0,14.27,4.630451,34.16,0.0
-64.0,13.0,-5.0,-16.97,0.448706,30.65,0.0
56.0,-26.0,-9.0,114.62,6.904278,33.0,0.0
47.0,-34.0,23.0,11.57,4.841527,33.31,0.0
-46.0,-6.0,-45.0,18.49,0.110275,33.07,0.0
47.0,-37.0,-17.0,-14.96,0.235649,33.57,0.0
55.0,6.0,31.0,14.4,0.257396,33.47,0.0
59.0,-22.0,-2.0,-10.25,4.974569,34.0,0.0
61.0,27.0,1.0,47.15,0.848577,35.71,0.0
59.0,-22.0,-4.0,-13.41,3.085787,33.77,0.0
53.0,9.0,33.0,8.93,0.391694,31.09,0.0
62.0,-2.0,-13.0,16.55,0.450536,34.41,0.0
54.0,10.0,31.0,12.08,0.394252,31.17,0.0
-52.0,16.0,35.0,-8.8,2.507446,34.37,0.0
57.0,23.0,17.0,13.12,0.174528,34.16,0.0
59.0,-4.0,21.0,4.5,1.018375,35.21,0.0
48.0,-37.0,-15.0,28.92,0.240766,33.57,0.0
54.0,10.0,31.0,6.34,0.391694,31.23,0.0
60.0,-12.0,13.0,-3.79,4.358511,34.53,0.0
60.0,-12.0,13.0,9.71,4.335485,34.21,0.0
20.0,-9.0,59.0,7.63,3.477493,32.53,0.0
28.0,55.0,-16.0,20.31,0.264221,34.11,0.0
62.0,-2.0,-13.0,13.54,0.447978,34.31,0.0
60.0,-4.0,18.0,1.0,1.362509,33.73,0.0
-40.0,-20.0,45.0,-20.42,3.020731,34.29,0.0
-19.0,-5.0,-61.0,-82.38,0.120509,33.05,0.0
47.0,-34.0,23.0,-12.86,4.766051,33.47,0.0
-62.0,2.0,20.0,12.86,0.189584,31.39,0.0
57.0,-1.0,-15.0,15.77,7.960688,33.45,0.0
-64.0,14.0,-6.0,-11.45,0.453831,30.63,0.0
-62.0,17.0,-9.0,-8.95,2.419178,31.65,0.0
54.0,10.0,32.0,-13.95,0.387856,31.23,0.0
-47.0,-17.0,39.0,47.6,2.68045,34.37,0.0
57.0,19.0,15.0,71.63,0.238193,34.11,0.0
41.0,19.0,45.0,7.93,0.244545,34.03,0.0
28.0,24.0,51.0,39.35,0.268909,33.25,0.0
-45.0,-14.0,43.0,-31.55,2.78279,34.34,0.0
60.0,-4.0,18.0,-3.09,1.189852,34.16,0.0
54.0,10.0,32.0,10.1,0.385298,31.21,0.0
63.0,1.0,-14.0,-14.74,4.620217,34.34,0.0
62.0,8.0,-8.0,-2.17,1.08488,33.77,0.0
-17.0,-7.0,-62.0,16.24,0.121788,33.05,0.0
70.0,-29.0,-15.0,78.95,6.854958,33.11,0.0
-19.0,-6.0,-61.0,2.24,0.11923,33.05,0.0
21.0,8.0,59.0,16.24,0.415998,31.59,0.0
58.0,-19.0,9.0,6.34,2.636492,33.87,0.0
47.0,36.0,12.0,-55.73,0.792199,35.68,0.0
50.0,-8.0,-29.0,17.99,6.880543,32.97,0.0
14.0,-59.0,16.0,-24.24,0.183188,31.45,0.0
58.0,5.0,25.0,-33.9,0.259954,33.43,0.0
20.0,7.0,59.0,-18.74,0.41344,31.61,0.0
-62.0,18.0,-10.0,1.95,2.433249,31.65,0.0
37.0,-43.0,23.0,61.03,3.141504,33.91,0.0
35.0,10.0,51.0,14.01,0.244603,33.53,0.0
-58.0,-18.0,-3.0,48.23,2.95293,34.33,0.0
60.0,-4.0,18.0,10.24,1.533888,33.95,0.0
-36.0,-5.0,-54.0,14.8,0.117951,33.11,0.0
31.0,55.0,-11.0,30.7,8.0675,34.77,0.0
20.0,7.0,59.0,15.15,0.442861,31.61,0.0
-26.0,53.0,7.0,5.72,2.501156,32.55,0.0
60.0,-12.0,13.0,4.65,4.362349,34.31,0.0
31.0,3.0,55.0,-112.77,0.406777,33.33,0.0
20.0,-9.0,59.0,-20.67,3.416104,32.5,0.0
49.0,-4.0,38.0,32.79,0.373718,33.97,0.0
-46.0,-3.0,-16.0,-91.76,3.41297,32.47,0.0
63.0,-6.0,-10.0,36.75,4.783961,34.47,0.0
58.0,-12.0,23.0,-19.94,4.726395,34.21,0.0
47.0,5.0,17.0,-3.94,1.320206,35.81,0.0
19.0,6.0,61.0,15.59,8.291369,34.77,0.0
59.0,-22.0,-4.0,8.43,2.964265,33.77,0.0
-30.0,56.0,9.0,1.9,4.435043,32.27,0.0
61.0,-12.0,13.0,6.51,4.364907,34.57,0.0
62.0,-2.0,-13.0,-7.0,0.453094,34.5,0.0
-20.0,59.0,7.0,2.22,2.090804,32.27,0.0
63.0,6.0,-12.0,-24.65,0.129681,35.89,0.0
-34.0,-6.0,-55.0,0.62,0.116671,33.11,0.0
52.0,5.0,36.0,12.55,0.225361,33.95,0.0
28.0,24.0,51.0,47.63,0.261234,33.29,0.0
59.0,-11.0,20.0,-27.61,8.819654,33.18,0.0
39.0,16.0,47.0,-10.64,0.244589,34.16,0.0
-64.0,14.0,-5.0,-9.65,0.442299,30.65,0.0
-50.0,-12.0,-41.0,37.98,2.457555,34.41,0.0
57.0,23.0,17.0,4.28,0.252689,33.61,0.0
26.0,18.0,50.0,16.63,0.21133,34.55,0.0
-20.0,-4.0,-61.0,30.32,0.120509,33.05,0.0
-63.0,18.0,-2.0,5.03,2.330909,31.51,0.0
-64.0,13.0,-5.0,7.42,0.449987,30.63,0.0
53.0,9.0,33.0,8.81,0.387856,31.07,0.0
45.0,-43.0,11.0,1.47,3.559345,33.71,0.0
56.0,23.0,17.0,-24.6,0.180935,33.87,0.0
-62.0,18.0,-3.0,16.07,2.375683,31.53,0.0
25.0,57.0,14.0,-47.13,0.279597,34.07,0.0
-32.0,55.0,9.0,-17.42,5.342882,32.34,0.0
-33.0,0.0,55.0,-13.58,2.535589,31.75,0.0
10.0,-47.0,39.0,21.9,2.541986,31.71,0.0
-59.0,-19.0,15.0,-3.29,2.813492,34.33,0.0
28.0,24.0,51.0,11.59,0.265071,33.29,0.0
55.0,1.0,3.0,8.03,0.192467,34.34,0.0
-56.0,22.0,-4.0,51.22,2.536869,31.81,0.0
-52.0,-21.0,32.0,-10.17,2.640793,34.39,0.0
54.0,6.0,32.0,15.0,0.258675,33.5,0.0
46.0,-39.0,-16.0,13.18,0.235649,33.57,0.0
52.0,25.0,25.0,19.1,0.707631,35.71,0.0
20.0,-9.0,59.0,-2.63,3.508188,32.55,0.0
38.0,-43.0,25.0,-8.39,2.8739,34.09,0.0
-33.0,-8.0,-55.0,3.34,0.138417,32.91,0.0
59.0,-4.0,21.0,11.99,1.006963,35.18,0.0
-24.0,-31.0,-52.0,23.24,0.126905,32.93,0.0
52.0,-18.0,31.0,3.55,5.51762,32.97,0.0
57.0,22.0,17.0,11.72,0.33982,33.71,0.0
54.0,11.0,31.0,0.45,0.392973,31.17,0.0
59.0,-22.0,-5.0,-9.86,3.029503,33.77,0.0
62.0,-2.0,-13.0,-20.3,0.446698,34.34,0.0
30.0,-3.0,61.0,47.31,0.251,33.53,0.0
63.0,-7.0,-8.0,-13.37,4.783961,34.45,0.0
20.0,7.0,59.0,6.29,0.390415,31.63,0.0
13.0,-8.0,61.0,-14.21,5.197836,32.77,0.0
62.0,-2.0,-13.0,3.13,0.447978,34.39,0.0
57.0,5.0,26.0,28.34,0.261234,33.41,0.0
29.0,26.0,50.0,18.91,0.297035,33.31,0.0
-42.0,-15.0,47.0,-9.85,3.162728,34.25,0.0
-49.0,-17.0,37.0,15.01,2.758484,34.33,0.0
63.0,-7.0,5.0,0.9,8.372087,33.47,0.0
57.0,22.0,16.0,-91.24,0.324444,33.68,0.0
60.0,0.0,-19.0,-11.67,0.173247,34.13,0.0
-65.0,0.0,5.0,14.66,0.185747,31.47,0.0
-34.0,-6.0,-55.0,-27.11,0.115392,33.11,0.0
58.0,-21.0,-11.0,-66.06,2.365307,34.11,0.0
49.0,24.0,26.0,-21.24,6.917071,32.99,0.0
55.0,-29.0,-3.0,-28.17,6.836478,32.83,0.0
32.0,7.0,-46.0,20.34,0.154027,35.91,0.0
20.0,-9.0,59.0,4.25,3.43273,32.5,0.0
38.0,-45.0,-23.0,7.01,0.231811,33.57,0.0
-62.0,-19.0,4.0,-62.42,2.64591,34.39,0.0
35.0,-38.0,-38.0,1.57,0.231811,33.57,0.0
48.0,29.0,31.0,-24.26,0.123275,35.91,0.0
38.0,21.0,46.0,6.85,0.229239,34.25,0.0
54.0,-30.0,-5.0,4.01,7.198506,32.63,0.0
57.0,6.0,27.0,8.78,0.261234,33.43,0.0
60.0,0.0,-20.0,-10.48,0.132244,34.09,0.0
62.0,0.0,12.0,22.64,0.164277,34.57,0.0
27.0,25.0,51.0,18.56,0.256117,33.27,0.0
62.0,0.0,12.0,-18.17,0.160433,34.59,0.0
59.0,-20.0,-3.0,36.64,4.645802,33.81,0.0
62.0,-2.0,-13.0,11.23,0.446698,34.31,0.0
55.0,6.0,30.0,-17.58,0.259954,33.45,0.0
-60.0,-23.0,-10.0,78.02,2.337305,34.41,0.0
-62.0,1.0,16.0,10.27,0.183188,31.45,0.0
51.0,-31.0,20.0,-2.37,4.578001,33.68,0.0
54.0,-15.0,28.0,-13.0,5.857584,33.07,0.0
60.0,-4.0,18.0,0.4,1.191131,34.16,0.0
35.0,26.0,46.0,-11.56,0.346923,33.41,0.0
61.0,36.0,1.0,44.69,6.981033,32.97,0.0
42.0,13.0,-45.0,15.92,0.114305,35.89,0.0
-52.0,-19.0,32.0,42.38,2.43197,34.39,0.0
-42.0,-11.0,36.0,-4.04,0.181909,31.43,0.0
53.0,-12.0,-31.0,-26.96,0.422394,34.05,0.0
59.0,-5.0,21.0,-11.76,0.996732,35.23,0.0
20.0,7.0,59.0,25.74,0.481236,31.61,0.0
34.0,11.0,51.0,32.52,0.239486,33.53,0.0
-33.0,-8.0,-55.0,-39.55,0.138417,32.91,0.0
55.0,-30.0,-4.0,11.64,7.019411,32.63,0.0
61.0,-4.0,19.0,-15.39,1.044052,34.87,0.0
61.0,-2.0,-13.0,-9.78,0.455653,34.49,0.0
33.0,-15.0,51.0,55.23,8.178108,33.41,0.0
-33.0,0.0,55.0,12.85,2.536869,31.77,0.0
53.0,-12.0,-32.0,-27.83,0.417277,34.11,0.0
28.0,25.0,51.0,40.85,0.262513,33.29,0.0
-64.0,-18.0,4.0,29.32,2.642072,34.39,0.0
40.0,13.0,-46.0,-16.3,0.113024,35.95,0.0
-34.0,-6.0,-55.0,-11.7,0.114113,33.09,0.0
9.0,9.0,61.0,-30.5,0.254822,34.11,0.0
56.0,-29.0,-3.0,25.56,7.158849,32.87,0.0
62.0,-2.0,-13.0,11.8,0.451815,34.37,0.0
-33.0,-6.0,-55.0,32.64,0.112834,33.11,0.0
53.0,-17.0,29.0,1.51,5.332128,33.0,0.0
57.0,23.0,17.0,-10.69,0.230906,33.65,0.0
55.0,-29.0,-7.0,-39.06,6.882531,32.73,0.0
-64.0,14.0,-5.0,0.8,0.442299,30.63,0.0
62.0,-2.0,-12.0,-17.04,0.454373,34.29,0.0
30.0,14.0,54.0,1.5,0.24972,33.55,0.0
-27.0,-11.0,-58.0,3.46,0.125626,33.0,0.0
37.0,-45.0,-22.0,-8.45,0.23309,33.57,0.0
42.0,27.0,39.0,24.27,0.779385,35.71,0.0
-36.0,-29.0,45.0,160.78,2.3808,34.43,0.0
34.0,10.0,53.0,1.58,0.245883,33.5,0.0
48.0,-32.0,23.0,4.67,4.572885,33.68,0.0
63.0,0.0,-5.0,-1.35,0.214249,34.18,0.0
42.0,13.0,-45.0,-44.83,0.114305,35.84,0.0
27.0,25.0,51.0,-79.13,0.252279,33.29,0.0
60.0,-4.0,18.0,-2.19,1.34972,33.73,0.0
60.0,-15.0,8.0,1.89,4.5133,30.17,0.0
60.0,-4.0,18.0,-5.68,1.092652,34.77,0.0
59.0,-4.0,3.0,-15.85,4.59847,34.27,0.0
45.0,10.0,8.0,58.27,0.367323,34.0,0.0
23.0,14.0,46.0,6.6,0.245883,33.25,0.0
54.0,23.0,22.0,13.66,0.154027,35.87,0.0
61.0,-15.0,9.0,-0.56,4.518417,30.19,0.0
28.0,26.0,50.0,-28.22,0.286802,33.31,0.0
30.0,26.0,49.0,13.12,0.311106,33.34,0.0
60.0,-12.0,13.0,19.12,4.627892,34.0,0.0
60.0,-4.0,18.0,-7.73,1.0837,34.75,0.0
34.0,23.0,48.0,-16.45,0.230518,34.25,0.0
25.0,-37.0,44.0,15.01,8.000979,34.71,0.0
38.0,-43.0,24.0,-16.33,3.028957,33.97,0.0
49.0,9.0,38.0,99.57,8.773164,34.77,0.0
13.0,-9.0,61.0,-9.09,4.845479,32.73,0.0
55.0,15.0,31.0,-177.25,0.253543,34.13,0.0
20.0,7.0,59.0,-4.36,0.456932,31.59,0.0
59.0,-21.0,-6.0,-19.94,2.932286,33.81,0.0
-21.0,-6.0,-60.0,-4.15,0.120509,33.05,0.0
53.0,-12.0,-32.0,14.53,0.409602,34.13,0.0
63.0,0.0,-5.0,2.05,0.214249,34.34,0.0
57.0,24.0,17.0,-2.28,0.342382,35.87,0.0
43.0,27.0,41.0,74.75,0.298314,33.31,0.0
52.0,3.0,37.0,9.29,0.234313,33.97,0.0
61.0,-14.0,-3.0,-1.02,4.901652,33.89,0.0
34.0,11.0,52.0,10.03,0.251,33.53,0.0
52.0,6.0,36.0,-29.87,0.226639,33.97,0.0
56.0,24.0,21.0,-20.57,0.499986,35.77,0.0
59.0,-1.0,-18.0,56.99,0.21553,34.27,0.0
46.0,20.0,41.0,-1.5,0.239472,34.23,0.0
62.0,0.0,12.0,-17.56,0.152745,34.63,0.0
-29.0,57.0,10.0,0.3,1.734171,31.93,0.0
-63.0,1.0,17.0,0.68,0.183188,31.43,0.0
-42.0,-12.0,-26.0,-22.29,3.12435,33.84,0.0
54.0,25.0,20.0,9.48,0.101492,35.93,0.0
51.0,29.0,22.0,0.31,0.506393,35.77,0.0
-62.0,18.0,-10.0,-13.89,2.433249,31.65,0.0
17.0,61.0,6.0,13.27,0.244589,33.91,0.0
-48.0,-18.0,39.0,-8.67,2.734178,34.37,0.0
53.0,-12.0,-32.0,-22.47,0.418557,34.13,0.0
54.0,25.0,20.0,-17.62,0.466671,35.77,0.0
35.0,21.0,48.0,28.55,0.229239,34.25,0.0
-62.0,1.0,19.0,4.79,0.193422,31.41,0.0
-18.0,-8.0,-61.0,21.09,0.123067,33.07,0.0
-32.0,56.0,10.0,0.65,3.665297,32.15,0.0
28.0,24.0,51.0,-45.35,0.271468,33.29,0.0
62.0,0.0,12.0,11.3,0.145057,34.65,0.0
62.0,0.0,12.0,-28.99,0.143776,34.73,0.0
55.0,23.0,23.0,2.96,0.148901,35.89,0.0
54.0,21.0,26.0,133.91,0.213889,34.47,0.0
53.0,-29.0,17.0,9.5,4.49613,34.43,0.0
51.0,23.0,24.0,13.41,0.129681,35.89,0.0
13.0,-9.0,61.0,3.99,4.32549,32.65,0.0
-62.0,2.0,19.0,14.75,0.198538,31.39,0.0
-45.0,-12.0,44.0,18.35,2.761043,34.34,0.0
63.0,-8.0,7.0,-22.42,8.488471,33.47,0.0
57.0,5.0,27.0,-83.6,0.263792,33.47,0.0
60.0,-12.0,13.0,0.65,4.363628,34.55,0.0
57.0,-22.0,-17.0,-28.48,2.049351,33.95,0.0
58.0,-27.0,3.0,-47.07,6.922759,33.11,0.0
52.0,-13.0,-34.0,-23.43,0.414719,34.15,0.0
-63.0,17.0,4.0,11.07,2.55222,31.85,0.0
47.0,-34.0,23.0,-13.76,4.817222,33.37,0.0
54.0,26.0,20.0,10.52,0.441045,35.79,0.0
53.0,10.0,33.0,15.67,0.396811,31.07,0.0
-63.0,1.0,17.0,17.68,0.18063,31.45,0.0
-65.0,0.0,6.0,15.06,0.185747,31.47,0.0
61.0,-15.0,8.0,8.31,6.853108,34.71,0.0
-32.0,-7.0,-56.0,10.56,0.111555,33.11,0.0
-64.0,14.0,-5.0,-17.4,0.442299,30.65,0.0
31.0,24.0,49.0,-14.59,0.291918,33.33,0.0
54.0,10.0,31.0,3.99,0.389135,31.21,0.0
49.0,-31.0,23.0,12.39,4.525552,33.73,0.0
-62.0,20.0,-10.0,-10.83,2.424294,31.65,0.0
43.0,-44.0,13.0,-51.46,3.496677,33.68,0.0
22.0,11.0,59.0,-34.33,1.142101,35.75,0.0
41.0,22.0,42.0,143.19,0.215168,34.41,0.0
60.0,-12.0,13.0,-24.01,4.35979,34.31,0.0
-48.0,-24.0,27.0,-25.66,2.580363,34.37,0.0
60.0,-4.0,18.0,3.42,1.272983,33.87,0.0
68.0,2.0,-3.0,2.7,4.659873,34.34,0.0
36.0,3.0,51.0,-31.13,0.373519,33.27,0.0
57.0,23.0,17.0,18.36,0.200155,33.66,0.0
47.0,24.0,32.0,-88.31,1.003027,33.68,0.0
54.0,6.0,33.0,15.16,6.358609,34.83,0.0
62.0,-5.0,8.0,-29.05,8.831165,33.05,0.0
51.0,29.0,23.0,-13.44,0.110461,35.87,0.0
43.0,19.0,42.0,-4.89,0.258613,33.99,0.0
25.0,-35.0,44.0,-18.13,8.082851,34.73,0.0
53.0,8.0,33.0,-4.98,0.215129,33.95,0.0
-18.0,62.0,14.0,46.92,2.173951,32.21,0.0
10.0,-48.0,39.0,2.44,2.541986,31.73,0.0
-52.0,-20.0,-25.0,53.07,3.114116,33.79,0.0
19.0,8.0,59.0,-26.93,0.391694,31.65,0.0
58.0,-21.0,-10.0,7.92,2.137614,34.05,0.0
56.0,-28.0,-4.0,-57.44,7.15757,32.61,0.0
60.0,0.0,-19.0,13.22,0.134807,34.09,0.0
34.0,21.0,48.0,10.6,0.231797,34.27,0.0
6.0,-53.0,32.0,15.3,2.515121,31.71,0.0
57.0,-29.0,-5.0,9.27,7.215137,32.61,0.0
-54.0,19.0,31.0,-28.33,3.137143,34.29,0.0
59.0,-4.0,20.0,11.61,1.009521,35.18,0.0
59.0,-4.0,21.0,-6.36,0.992895,35.25,0.0
-41.0,23.0,43.0,18.68,3.027127,34.31,0.0
-45.0,-12.0,44.0,46.6,2.780231,34.33,0.0
25.0,-33.0,47.0,1.02,8.0675,34.68,0.0
33.0,-15.0,51.0,2.41,8.089861,33.41,0.0
54.0,6.0,32.0,20.28,0.258675,33.49,0.0
20.0,8.0,59.0,-5.71,0.39809,31.63,0.0
57.0,23.0,17.0,-14.68,0.218093,33.63,0.0
-23.0,-11.0,-59.0,-26.11,0.126905,32.97,0.0
53.0,-4.0,30.0,-4.15,6.597828,33.0,0.0
5.0,-60.0,19.0,72.91,0.235649,33.53,0.0
30.0,-48.0,-29.0,-12.6,0.231811,33.57,0.0
60.0,12.0,28.0,35.23,0.210051,34.5,0.0
-35.0,-21.0,50.0,-64.68,2.974678,34.33,0.0
20.0,8.0,59.0,-24.28,0.390415,31.65,0.0
-78.0,20.0,-58.0,7.46,4.735568,32.29,0.0
53.0,8.0,33.0,10.7,0.211292,33.95,0.0
62.0,-1.0,-12.0,-7.6,0.450536,34.25,0.0
-31.0,55.0,10.0,-21.85,2.450308,32.05,0.0
26.0,26.0,51.0,10.7,0.248441,33.27,0.0
57.0,-27.0,-3.0,78.06,6.689364,32.91,0.0
58.0,5.0,25.0,-29.53,0.259954,33.45,0.0
60.0,0.0,-19.0,-16.66,0.174528,34.13,0.0
59.0,-23.0,-4.0,-13.31,2.993686,33.81,0.0
20.0,7.0,59.0,21.85,0.415998,31.59,0.0
20.0,-9.0,59.0,-21.88,3.460867,32.5,0.0
44.0,14.0,45.0,-21.15,0.519611,31.57,0.0
26.0,17.0,55.0,12.21,0.212609,34.45,0.0
-41.0,58.0,6.0,-9.05,0.426924,32.63,0.0
31.0,26.0,49.0,1.21,0.316223,33.33,0.0
62.0,-2.0,-13.0,17.3,0.450536,34.45,0.0
56.0,18.0,23.0,10.47,0.175809,35.84,0.0
-63.0,18.0,-7.0,1.51,2.51768,31.79,0.0
2.0,14.0,63.0,99.31,0.551308,35.81,0.0
35.0,10.0,51.0,-71.6,0.252279,33.53,0.0
57.0,23.0,17.0,-10.56,0.216812,33.65,0.0
23.0,54.0,-8.0,-40.17,0.24372,34.09,0.0
42.0,12.0,45.0,2.31,0.52217,31.57,0.0
30.0,26.0,49.0,21.36,0.30471,33.33,0.0
-20.0,61.0,8.0,-106.56,2.040916,32.21,0.0
60.0,-4.0,18.0,1.01,1.053005,34.84,0.0
28.0,12.0,56.0,-50.77,0.942917,34.57,0.0
27.0,18.0,54.0,-40.27,0.213889,34.41,0.0
57.0,23.0,17.0,3.36,0.175809,34.21,0.0
21.0,7.0,59.0,7.89,0.405765,31.59,0.0
-16.0,61.0,9.0,-88.69,2.163197,32.29,0.0
-27.0,57.0,9.0,0.25,3.685877,32.49,0.0
-63.0,18.0,-2.0,3.21,2.312999,31.49,0.0
59.0,-4.0,20.0,4.75,1.004405,35.18,0.0
60.0,-4.0,18.0,10.3,1.015916,35.15,0.0
21.0,7.0,59.0,10.65,0.432627,31.61,0.0
52.0,8.0,36.0,-28.64,0.235592,33.97,0.0
-65.0,40.0,-8.0,-0.0,0.519175,32.59,0.0
60.0,-4.0,18.0,0.51,1.040216,34.95,0.0
49.0,31.0,25.0,-31.56,0.676879,35.73,0.0
16.0,-11.0,58.0,6.36,0.363486,33.99,0.0
59.0,1.0,23.0,9.42,0.348139,34.03,0.0
-61.0,22.0,-11.0,-3.1,2.389755,31.61,0.0
59.0,-11.0,18.0,-14.42,4.713602,34.47,0.0
49.0,4.0,39.0,-3.52,0.374997,33.99,0.0
58.0,-21.0,-10.0,19.83,2.114588,34.0,0.0
20.0,8.0,59.0,12.92,0.399369,31.63,0.0
-49.0,2.0,42.0,-67.94,0.167838,32.84,0.0
-64.0,13.0,-5.0,2.46,0.45255,30.63,0.0
-52.0,-20.0,32.0,-41.41,2.396151,34.45,0.0
21.0,11.0,58.0,25.54,1.00628,35.71,0.0
-44.0,20.0,42.0,-23.9,3.046316,34.34,0.0
60.0,-4.0,18.0,-11.79,1.109279,34.66,0.0
61.0,-15.0,-5.0,35.22,7.062905,34.73,0.0
56.0,-30.0,-8.0,14.49,6.454553,33.07,0.0
-63.0,1.0,17.0,17.63,0.18063,31.43,0.0
52.0,-13.0,-34.0,-5.16,0.41344,34.21,0.0
52.0,-13.0,-34.0,-11.87,0.414719,34.21,0.0
54.0,23.0,22.0,-26.18,0.143776,35.89,0.0
62.0,8.0,-8.0,9.82,1.100227,33.75,0.0
-20.0,-6.0,-61.0,-84.26,0.121788,33.09,0.0
6.0,-53.0,33.0,5.58,2.511284,31.73,0.0
55.0,-31.0,-6.0,-11.27,7.047554,32.71,0.0
58.0,-25.0,4.0,152.77,8.003538,34.71,0.0
49.0,31.0,22.0,-28.26,0.501336,35.87,0.0
-62.0,18.0,-9.0,-5.59,2.461393,31.73,0.0
52.0,6.0,36.0,13.85,0.222803,33.93,0.0
62.0,8.0,-8.0,58.96,1.106622,33.79,0.0
56.0,19.0,23.0,-13.14,0.187341,35.84,0.0
-42.0,-16.0,-35.0,7.46,0.584519,32.57,0.0
54.0,10.0,32.0,7.95,0.389135,31.05,0.0
37.0,26.0,44.0,-28.89,0.336689,33.37,0.0
63.0,0.0,-6.0,8.5,0.21553,34.18,0.0
30.0,3.0,55.0,13.0,0.373519,33.31,0.0
-65.0,-1.0,4.0,19.4,0.185747,31.47,0.0
55.0,-29.0,-5.0,29.02,6.906837,32.63,0.0
-41.0,23.0,44.0,-80.8,3.027127,34.33,0.0
-65.0,0.0,5.0,14.92,0.187026,31.47,0.0
56.0,23.0,17.0,5.65,0.197592,33.68,0.0
20.0,-8.0,58.0,14.73,0.369881,33.99,0.0
25.0,12.0,58.0,28.93,0.254822,34.07,0.0
56.0,-28.0,-4.0,-19.74,7.092328,32.57,0.0
-62.0,1.0,18.0,-49.76,0.190863,31.41,0.0
28.0,26.0,50.0,-53.12,0.266351,33.27,0.0
-55.0,13.0,-32.0,-9.04,3.925391,32.43,0.0
-61.0,13.0,20.0,114.93,2.504887,34.37,0.0
56.0,23.0,17.0,14.07,0.178372,34.05,0.0
8.0,-60.0,15.0,-44.92,0.188305,31.47,0.0
-63.0,1.0,17.0,-11.1,0.179351,31.43,0.0
27.0,1.0,57.0,129.17,0.410615,33.27,0.0
-64.0,13.0,-5.0,-15.21,0.449987,30.63,0.0
-63.0,18.0,-2.0,5.85,2.312999,31.49,0.0
31.0,26.0,49.0,-43.17,0.318781,33.34,0.0
38.0,-43.0,26.0,137.34,2.71659,34.18,0.0
13.0,-9.0,61.0,8.78,4.740606,32.73,0.0
-49.0,2.0,42.0,-10.14,0.167838,32.89,0.0
61.0,-1.0,-19.0,-23.4,0.138651,34.07,0.0
30.0,26.0,49.0,19.59,0.316223,33.34,0.0
62.0,-2.0,-13.0,-32.69,0.449257,34.39,0.0
-62.0,17.0,-10.0,-4.73,2.460114,31.69,0.0
53.0,26.0,21.0,-17.74,0.817825,35.68,0.0
58.0,-21.0,0.0,21.67,3.343807,33.75,0.0
51.0,10.0,37.0,-7.01,0.39809,31.01,0.0
61.0,20.0,16.0,-18.04,0.246282,35.75,0.0
20.0,-9.0,59.0,-26.92,3.609224,32.59,0.0
47.0,-34.0,23.0,-19.54,4.7507,33.45,0.0
59.0,-21.0,-5.0,1.9,2.993313,33.71,0.0
-21.0,-11.0,-60.0,-68.72,0.126905,32.97,0.0
60.0,-4.0,18.0,-4.36,1.173226,34.29,0.0
-30.0,56.0,16.0,6.17,4.154736,32.34,0.0
29.0,27.0,49.0,0.08,0.277847,33.49,0.0
20.0,7.0,59.0,21.48,0.405765,31.63,0.0
62.0,8.0,-10.0,-62.45,0.968496,34.13,0.0
52.0,5.0,36.0,13.46,0.222803,33.95,0.0
-33.0,-8.0,-55.0,-0.65,0.135859,32.91,0.0
58.0,-25.0,-3.0,146.55,8.006097,34.77,0.0
-29.0,56.0,10.0,-10.04,2.192374,31.99,0.0
-35.0,55.0,9.0,-15.13,4.035292,32.34,0.0
60.0,-4.0,18.0,3.48,1.090094,34.75,0.0
37.0,15.0,49.0,19.73,0.213889,34.53,0.0
55.0,-29.0,-6.0,33.75,7.07314,32.66,0.0
-30.0,-41.0,-10.0,-20.91,3.148656,33.68,0.0
31.0,-47.0,-28.0,-35.44,0.235649,33.57,0.0
-21.0,-11.0,-60.0,35.89,0.126905,32.97,0.0
51.0,-13.0,-34.0,-22.19,0.412161,34.21,0.0
59.0,-19.0,-5.0,24.18,3.066599,33.84,0.0
-49.0,2.0,42.0,-72.58,0.166559,32.89,0.0
57.0,5.0,27.0,-76.44,0.262513,33.39,0.0
56.0,-28.0,-6.0,-56.74,7.056509,32.57,0.0
44.0,-44.0,14.0,-11.31,3.518419,33.66,0.0
31.0,-16.0,51.0,-2.05,8.171713,33.41,0.0
-22.0,-11.0,-60.0,32.63,0.126905,32.97,0.0
-54.0,19.0,31.0,-13.65,3.123071,34.29,0.0
-44.0,20.0,42.0,-4.16,3.057829,34.33,0.0
62.0,0.0,12.0,-24.41,0.161715,34.59,0.0
-22.0,-37.0,2.0,-89.15,3.079576,33.71,0.0
49.0,-31.0,23.0,8.78,4.522994,33.77,0.0
53.0,1.0,34.0,-11.6,0.308492,34.0,0.0
37.0,9.0,51.0,35.91,0.252279,33.5,0.0
54.0,6.0,32.0,-78.37,0.258675,33.5,0.0
53.0,10.0,33.0,-20.76,0.394252,31.05,0.0
35.0,10.0,51.0,24.91,0.242045,33.53,0.0
-62.0,1.0,19.0,16.57,0.190863,31.41,0.0
48.0,-17.0,38.0,4.56,8.841396,33.33,0.0
-65.0,-1.0,9.0,-18.09,0.192143,31.47,0.0
54.0,26.0,21.0,-20.46,0.093804,35.95,0.0
53.0,7.0,33.0,21.8,0.386507,33.84,0.0
46.0,34.0,27.0,0.61,0.124556,35.91,0.0
52.0,10.0,34.0,10.35,0.396811,31.03,0.0
27.0,25.0,51.0,43.25,0.248441,33.27,0.0
-65.0,0.0,8.0,5.19,0.188305,31.47,0.0
20.0,7.0,59.0,-14.88,0.441582,31.61,0.0
63.0,1.0,-1.0,17.58,1.086258,34.91,0.0
17.0,61.0,6.0,20.72,0.219005,34.34,0.0
61.0,-14.0,9.0,4.29,4.524814,30.17,0.0
-15.0,62.0,8.0,-120.08,2.086447,32.27,0.0
-63.0,2.0,17.0,26.73,0.183188,31.41,0.0
49.0,13.0,-38.0,-14.21,0.818859,34.21,0.0
-45.0,-12.0,43.0,20.32,2.763601,34.34,0.0
61.0,-12.0,13.0,-22.36,4.350835,34.49,0.0
-20.0,-7.0,-61.0,-2.99,0.11923,33.05,0.0
55.0,9.0,30.0,10.55,0.235592,34.0,0.0
57.0,22.0,18.0,-57.36,0.315474,33.68,0.0
63.0,14.0,19.0,7.78,0.235635,34.09,0.0
56.0,-30.0,-6.0,1.88,7.098724,32.68,0.0
-48.0,2.0,42.0,51.35,0.16528,32.84,0.0
55.0,18.0,71.0,15.39,1.347114,35.83,0.0
51.0,-32.0,-9.0,0.22,6.189747,33.0,0.0
-54.0,-21.0,28.0,31.42,2.353936,34.41,0.0
13.0,-8.0,60.0,-11.3,4.358742,32.66,0.0
39.0,-42.0,25.0,170.44,2.69229,34.21,0.0
-62.0,19.0,-9.0,-1.18,2.488257,31.73,0.0
31.0,3.0,55.0,0.41,0.378636,33.34,0.0
-64.0,13.0,-5.0,-17.99,0.449987,30.63,0.0
-17.0,61.0,8.0,36.33,2.161918,32.27,0.0
47.0,-34.0,23.0,9.79,4.767331,33.45,0.0
21.0,8.0,59.0,-25.85,0.418557,31.59,0.0
58.0,-1.0,-17.0,-39.58,0.171965,34.39,0.0
55.0,-15.0,26.0,-5.82,5.743731,33.05,0.0
33.0,17.0,53.0,50.19,0.24331,34.25,0.0
-51.0,-23.0,33.0,-20.62,2.3808,34.45,0.0
30.0,26.0,49.0,16.57,0.302152,33.33,0.0
56.0,18.0,23.0,0.37,0.179653,35.84,0.0
39.0,13.0,48.0,11.17,0.216447,34.53,0.0
55.0,21.0,20.0,42.24,0.247147,34.13,0.0
30.0,-47.0,-28.0,-71.49,0.239486,33.57,0.0
19.0,61.0,7.0,13.57,0.222843,34.34,0.0
62.0,8.0,-9.0,68.67,1.041396,33.83,0.0
50.0,19.0,33.0,11.8,0.300872,33.29,0.0
-62.0,17.0,-10.0,1.81,2.46523,31.71,0.0
53.0,19.0,39.0,144.21,0.498774,35.87,0.0
53.0,-29.0,18.0,2.39,4.562651,34.45,0.0
61.0,2.0,-14.0,-12.63,7.540265,33.41,0.0
-30.0,57.0,10.0,5.45,2.056561,31.93,0.0
60.0,-11.0,13.0,14.36,4.361069,34.57,0.0
-63.0,18.0,-3.0,4.33,2.58548,31.83,0.0
38.0,30.0,41.0,9.1,0.294477,33.31,0.0
59.0,-4.0,21.0,-5.78,1.014538,35.25,0.0
-21.0,-5.0,-61.0,29.73,0.120509,33.07,0.0
62.0,0.0,12.0,-16.08,0.157871,34.59,0.0
-27.0,57.0,13.0,-1.99,3.429626,32.47,0.0
-36.0,-5.0,-54.0,-4.46,0.117951,33.11,0.0
-26.0,58.0,13.0,2.29,3.478313,32.47,0.0
18.0,20.0,59.0,29.03,0.516712,35.84,0.0
11.0,11.0,61.0,28.93,0.248426,34.13,0.0
61.0,12.0,-29.0,20.38,6.730871,33.11,0.0
56.0,-28.0,-5.0,34.1,7.08977,32.57,0.0
-54.0,-19.0,33.0,90.31,2.726503,34.37,0.0
64.0,0.0,-2.0,-26.21,0.216812,34.37,0.0
54.0,10.0,31.0,6.99,0.394252,31.23,0.0
-65.0,0.0,5.0,-21.05,0.187026,31.49,0.0
62.0,-2.0,-13.0,-10.44,0.445419,34.31,0.0
-46.0,-12.0,43.0,22.94,2.757205,34.33,0.0
-63.0,17.0,-2.0,5.91,2.31172,31.49,0.0
20.0,-9.0,59.0,14.95,3.613061,32.59,0.0
55.0,23.0,22.0,8.86,0.156589,35.91,0.0
51.0,22.0,31.0,-46.58,0.497492,35.89,0.0
25.0,-51.0,26.0,-30.28,2.589318,31.73,0.0
-19.0,-4.0,-61.0,-68.18,0.121788,33.07,0.0
28.0,54.0,-17.0,25.8,0.255252,34.11,0.0
-4.0,-16.0,67.0,-20.3,0.373718,33.99,0.0
53.0,26.0,21.0,19.21,0.097648,35.93,0.0
-59.0,-20.0,17.0,48.69,2.830122,34.31,0.0
25.0,57.0,14.0,-0.97,0.248845,34.03,0.0
7.0,10.0,62.0,0.92,0.252264,34.16,0.0
-40.0,-20.0,48.0,-163.19,2.825005,34.33,0.0
-63.0,2.0,17.0,-8.29,0.181909,31.45,0.0
-62.0,19.0,-2.0,1.64,2.361611,31.57,0.0
-91.0,-21.0,-59.0,43.13,2.633117,34.37,0.0
53.0,-17.0,30.0,0.28,5.236185,33.16,0.0
58.0,16.0,20.0,-5.14,0.216812,35.75,0.0
-64.0,14.0,-5.0,9.18,0.443581,30.65,0.0
30.0,25.0,50.0,11.27,0.28936,33.31,0.0
61.0,-15.0,6.0,-92.89,6.896603,34.71,0.0
54.0,10.0,32.0,-0.5,0.387856,31.25,0.0
36.0,8.0,51.0,-47.52,0.248441,33.49,0.0
36.0,9.0,51.0,34.75,0.253558,33.49,0.0
20.0,-9.0,59.0,-3.61,3.652708,32.55,0.0
56.0,-27.0,5.0,0.14,6.873576,33.0,0.0
62.0,-2.0,-13.0,-10.14,0.446698,34.33,0.0
6.0,-53.0,32.0,3.4,2.506166,31.71,0.0
6.0,-53.0,33.0,5.49,2.516401,31.71,0.0
57.0,23.0,17.0,13.52,0.220656,33.65,0.0
28.0,25.0,51.0,-53.94,0.271468,33.27,0.0
56.0,-28.0,-6.0,17.9,7.116634,32.57,0.0
17.0,61.0,6.0,13.48,0.245868,33.91,0.0
57.0,21.0,17.0,80.16,1.018375,33.81,0.0
-20.0,-6.0,-61.0,37.86,0.121788,33.05,0.0
54.0,26.0,20.0,6.74,0.451295,35.79,0.0
-34.0,-6.0,-55.0,0.08,0.115392,33.13,0.0
32.0,24.0,49.0,-6.08,0.245883,33.27,0.0
5.0,-53.0,32.0,3.55,2.502329,31.75,0.0
38.0,13.0,48.0,-9.35,0.215168,34.5,0.0
-58.0,16.0,23.0,8.46,2.484419,34.41,0.0
-30.0,56.0,8.0,-3.59,1.960467,31.95,0.0
34.0,18.0,50.0,25.92,0.22796,34.27,0.0
60.0,-4.0,18.0,-5.78,1.48273,33.81,0.0
48.0,-37.0,-17.0,-8.93,0.238207,33.59,0.0
56.0,8.0,29.0,6.2,0.235592,33.99,0.0
49.0,12.0,-38.0,-21.34,0.820138,34.21,0.0
-16.0,63.0,11.0,127.36,2.117667,32.21,0.0
63.0,-7.0,5.0,-2.36,8.444986,33.49,0.0
-35.0,-6.0,-54.0,-51.23,0.115392,33.11,0.0
25.0,-36.0,44.0,-35.27,7.962602,34.71,0.0
46.0,27.0,36.0,1.68,0.339248,33.39,0.0
60.0,-4.0,18.0,-4.08,1.11951,34.63,0.0
62.0,12.0,-1.0,40.55,8.038077,34.77,0.0
19.0,7.0,60.0,23.68,0.496586,31.59,0.0
52.0,-18.0,30.0,7.77,5.471567,32.95,0.0
62.0,-5.0,-9.0,9.58,4.911886,34.11,0.0
60.0,-29.0,-5.0,184.07,6.964403,33.0,0.0
53.0,9.0,34.0,8.41,0.217687,33.97,0.0
62.0,0.0,12.0,-33.06,0.162996,34.57,0.0
-51.0,-19.0,-38.0,50.98,2.862103,34.31,0.0
53.0,8.0,33.0,15.05,0.210013,33.95,0.0
31.0,24.0,49.0,22.05,0.245883,33.27,0.0
56.0,-26.0,-8.0,-16.65,4.882463,33.75,0.0
-62.0,17.0,-9.0,2.61,2.475465,31.73,0.0
61.0,-2.0,-13.0,11.95,0.447978,34.33,0.0
29.0,28.0,49.0,2.36,0.27401,33.49,0.0
-18.0,59.0,12.0,71.1,2.114588,32.29,0.0
53.0,1.0,34.0,-18.64,0.304655,34.03,0.0
7.0,50.0,12.0,95.15,1.138595,33.84,0.0
62.0,-1.0,12.0,3.88,0.143776,34.63,0.0
50.0,-31.0,21.0,16.29,4.593352,33.68,0.0
-55.0,-8.0,-30.0,23.81,0.107717,33.05,0.0
20.0,20.0,48.0,-3.4,0.261218,34.11,0.0
20.0,-10.0,59.0,-12.61,3.679566,32.63,0.0
29.0,2.0,60.0,-46.49,0.378636,33.27,0.0
-20.0,-6.0,-61.0,23.37,0.120509,33.09,0.0
63.0,-6.0,4.0,17.27,4.608704,34.39,0.0
56.0,-29.0,-5.0,0.2,6.991267,32.83,0.0
60.0,-4.0,18.0,-11.87,1.056842,34.87,0.0
62.0,0.0,12.0,-28.54,0.14762,34.61,0.0
60.0,-4.0,18.0,-3.86,1.449478,33.73,0.0
52.0,-19.0,30.0,-15.98,5.902358,33.03,0.0
62.0,-1.0,-12.0,-10.21,0.456932,34.29,0.0
-29.0,57.0,9.0,0.86,1.721358,31.93,0.0
54.0,10.0,31.0,-8.64,0.390415,31.17,0.0
60.0,-15.0,9.0,3.21,4.517138,30.17,0.0
53.0,-12.0,-32.0,-7.18,0.414719,34.13,0.0
55.0,-30.0,-7.0,104.05,6.340699,33.07,0.0
17.0,61.0,6.0,-15.8,0.221564,34.34,0.0
-44.0,-7.0,-48.0,14.58,0.110275,33.05,0.0
-30.0,57.0,14.0,3.1,3.830579,32.34,0.0
55.0,-18.0,23.0,-25.28,4.795474,33.84,0.0
57.0,6.0,27.0,-1.5,0.262513,33.43,0.0
-63.0,16.0,-3.0,-3.28,2.539427,31.83,0.0
-51.0,-16.0,43.0,-56.02,2.769997,34.34,0.0
-34.0,-6.0,-55.0,44.67,0.115392,33.11,0.0
38.0,-39.0,-32.0,79.97,3.849666,33.89,0.0
28.0,24.0,51.0,3.84,0.26763,33.29,0.0
40.0,-42.0,24.0,26.98,2.488938,34.21,0.0
23.0,23.0,56.0,-74.03,0.271451,33.5,0.0
56.0,-29.0,-3.0,2.63,6.995105,32.84,0.0
55.0,23.0,22.0,8.13,0.312912,35.83,0.0
17.0,61.0,6.0,22.47,0.220284,34.34,0.0
60.0,0.0,-21.0,-0.55,0.192467,34.23,0.0
62.0,8.0,-10.0,9.3,1.001748,34.05,0.0
48.0,-33.0,23.0,10.8,4.636847,33.63,0.0
38.0,-38.0,-31.0,3.28,3.72305,33.84,0.0
-24.0,6.0,61.0,82.41,1.31509,34.18,0.0
59.0,-26.0,0.0,-29.52,8.045753,34.66,0.0
-17.0,-8.0,-61.0,31.16,0.123067,33.05,0.0
55.0,6.0,31.0,-25.99,0.259954,33.47,0.0
35.0,10.0,51.0,36.55,0.239486,33.5,0.0
